Time,x_ego,y_ego,velocity,acceleration,action,x_ped,y_ped
0,11.8,8.9,7,0,1,15.5,29.9
0.0333333333333333,11.8,9.13327037939431,6.99615577953002,-0.00384422046998356,1,15.5,29.9
0.0666666666666667,11.8,9.36640659881126,6.99196947109348,-0.00418630843653833,1,15.5,29.9
0.1,11.8,9.59940075527911,6.98769498718995,-0.00427448390352669,1,15.5,29.9
0.133333333333333,11.8,9.83225378528415,6.9834976545359,-0.00419733265404787,1,15.5,29.9
0.166666666666667,11.8,10.0649678802301,6.97935585456763,-0.00414179996826913,1,15.5,29.9
0.2,11.8,10.2975446186632,6.97525409491249,-0.00410175965514537,1,15.5,29.9
0.233333333333333,11.8,10.5299851399444,6.97118127319767,-0.00407282171482137,1,15.5,29.9
0.266666666666667,11.8,10.7622902687052,6.96712943294736,-0.00405184025031069,1,15.5,29.9
0.3,11.8000016814548,10.9944606040324,6.96309287353471,-0.00403655941264791,1,15.5,29.9
0.333333333333333,11.8000122065122,11.2264965833453,6.95906751993331,-0.00402535360139922,1,15.5,29.9
0.366666666666667,11.8000372805308,11.4583985280202,6.95505045449905,-0.0040170654342635,1,15.5,29.9
0.4,11.800079867295,11.6901666760169,6.95103957609513,-0.0040108784039159,1,15.5,29.9
0.433333333333333,11.8001410022802,11.9218012053801,6.94703336923355,-0.00400620686158248,1,15.5,29.9
0.466666666666667,11.8002205242164,12.153302251251,6.94303074400587,-0.00400262522767658,1,15.5,29.9
0.5,11.8003176374727,12.3846699181631,6.93903092041035,-0.00399982359552187,1,15.5,29.9
0.533333333333333,11.8004321232366,12.6159042886999,6.93503336445662,-0.0039975559537293,1,15.5,29.9
0.566666666666667,11.8005664446064,12.8470054290808,6.93103769307941,-0.00399567137721135,1,15.5,29.9
0.6,11.8007223877815,13.0779733939747,6.92704360905838,-0.00399408402102441,1,15.5,29.9
0.633333333333333,11.8009004512404,13.30880823005,6.92305089608255,-0.00399271297583059,1,15.5,29.9
0.666666666666667,11.801100257699,13.5395099784347,6.91905939815957,-0.00399149792298292,1,15.5,29.9
0.7,11.8013209278412,13.7700786764434,6.91506900478348,-0.0039903933760943,1,15.5,29.9
0.733333333333333,11.8015613801124,14.0005143587589,6.9110796393422,-0.00398936544128148,1,15.5,29.9
0.766666666666667,11.8018205428545,14.2308170582171,6.90709124974462,-0.00398838959757519,1,15.5,29.9
0.8,11.8020974820348,14.4609868063207,6.90310380097187,-0.0039874487727527,1,15.5,29.9
0.833333333333333,11.8023914588527,14.6910236335768,6.89911726943673,-0.0039865315351344,1,15.5,29.9
0.866666666666667,11.8027019367248,14.9209275697271,6.89513163896352,-0.0039856304732151,1,15.5,29.9
0.9,11.8030285571994,15.1506982805943,6.89112509933027,-0.00400653963324515,1,15.5,29.9
0.933333333333333,11.8033710152129,15.380248961488,6.88193133793931,-0.00919376139096606,1,15.5,29.9
0.966666666666667,11.8037289702447,15.609377649558,6.8658071360219,-0.0161242019174033,1,15.5,29.9
1,11.8041020765513,15.8378537093469,6.84277532533268,-0.0230318106892273,3,15.5,29.9
1.03333333333333,11.8044899067016,16.0653891373335,6.80937105565994,-0.0334042696727348,3,15.5,29.9
1.06666666666667,11.8048928836783,16.2917824484973,6.77425016983883,-0.0351208858211161,3,15.5,29.9
1.1,11.8053141633036,16.5170051289736,6.73913548320576,-0.0351146866330652,3,15.5,29.9
1.13333333333333,11.8057563281304,16.7411147882218,6.70747155167448,-0.031663931531277,3,15.5,29.9
1.16666666666667,11.8062214814588,16.9641690364448,6.67581398888278,-0.0316575627916986,3,15.5,29.9
1.2,11.8067141845716,17.1861680746943,6.64416292986249,-0.0316510590202927,3,15.5,29.9
1.23333333333333,11.8072404666784,17.407169870571,6.61598441991435,-0.0281785099481411,3,15.5,29.9
1.26666666666667,11.807804895927,17.6272901523963,6.59127802353783,-0.0247063963765175,3,15.5,29.9
1.3,11.8084120874768,17.8466155654889,6.56829930558594,-0.0229787179518901,3,15.5,29.9
1.33333333333333,11.8090643304625,18.0651749765414,6.54532575361163,-0.0229735519743111,3,15.5,29.9
1.36666666666667,11.8097616818884,18.2829685466066,6.5223572072431,-0.0229685463685296,3,15.5,29.9
1.4,11.8105029744853,18.5000542040048,6.50285958378397,-0.0194976234591273,3,15.5,29.9
1.43333333333333,11.8112864697814,18.7165472722411,6.48681060092026,-0.0160489828637109,1,15.5,29.9
1.46666666666667,11.8121101837149,18.9325630589462,6.4742315324803,-0.012579068439968,1,15.5,29.9
1.5,11.8129724165464,19.1483040502274,6.47033172707288,-0.00389980540742041,1,15.5,29.9
1.53333333333333,11.8138715286469,19.3639149305603,6.46643398871087,-0.00389773836200291,1,15.4916666666667,29.9
1.56666666666667,11.8148057597943,19.5793957609793,6.46253798764154,-0.00389600106933674,1,15.4666666666667,29.9
1.6,11.8157736631026,19.7947465927204,6.45864346430479,-0.00389452333674178,1,15.425,29.9
1.63333333333333,11.8167741232093,20.0099674695765,6.45475020673106,-0.00389325757373893,1,15.3752276867031,29.9
1.66666666666667,11.8178063586571,20.2250584295563,6.45085804234742,-0.00389216438363515,1,15.3259107468124,29.9
1.7,11.8188699081794,20.44001950609,6.44696683788807,-0.00389120445934577,1,15.2770491803279,29.9
1.73333333333333,11.8199645986306,20.6548507289573,6.44307650152273,-0.0038903363653402,1,15.2286429872495,29.9
1.76666666666667,11.8210904942593,20.8695521250594,6.43918698277283,-0.00388951874990084,1,15.1806921675774,29.9
1.8,11.8222478308704,21.084123719103,6.43529826789085,-0.00388871488197928,1,15.1331967213115,29.9
1.83333333333333,11.8234369421614,21.2985655342259,6.4314103705736,-0.00388789731725847,1,15.0861566484517,29.9
1.86666666666667,11.8246581876457,21.5128775925627,6.42752331963068,-0.00388705094291453,1,15.0395719489982,29.9
1.9,11.8259118914383,21.7270599157307,6.42363714618045,-0.00388617345022979,1,14.9934426229508,29.9
1.93333333333333,11.8271982989178,21.9411125252126,6.41975187299646,-0.00388527318399579,1,14.9477686703097,29.9
1.96666666666667,11.8285175546272,22.1550354426195,6.41586750792379,-0.00388436507266299,1,14.9025500910747,29.9
2,11.8298697007562,22.3688286898315,6.41198404214198,-0.00388346578180965,1,14.8577868852459,29.9
2.03333333333333,11.8312531732003,22.5824922973008,6.40810131320091,-0.00388272894106922,1,14.8134790528233,29.9
2.06666666666667,11.8326590330245,22.7960263375297,6.4042190505572,-0.00388226264370939,1,14.7696265938069,29.9
2.1,11.834069597935,23.0094309379903,6.40033716304459,-0.00388188751261875,1,14.7262295081967,29.9
2.13333333333333,11.8354592248617,23.2227062807321,6.39645574279882,-0.00388142024576865,1,14.6832877959927,29.9
2.16666666666667,11.8367893979537,23.4358526307678,6.39257535908257,-0.00388038371625132,1,14.6408014571949,29.9
2.2,11.8380087056606,23.6488703282839,6.38869746782022,-0.00387789126234406,1,14.5987704918033,29.9
2.23333333333333,11.8390531004302,23.8612115019709,6.3519298674835,-0.0367676003367174,3,14.5571948998179,29.9
2.26666666666667,11.8398654915912,24.0719823747913,6.29442008299578,-0.0575097844877259,3,14.5160746812386,29.9
2.3,11.8404101733559,24.280664387512,6.22654749181015,-0.0678725911856244,3,14.4754098360656,29.9
2.33333333333333,11.8406705705959,24.4873728709354,6.17597515165956,-0.0505723401505982,3,14.4352003642987,29.9
2.36666666666667,11.8406510926185,24.6928573489425,6.15309663089354,-0.0228785207660183,3,14.3954462659381,29.9
2.4,11.8403685036064,24.8978966203248,6.14927373312337,-0.00382289777016886,1,14.3561475409836,29.9
2.43333333333333,11.8398440040122,25.1028079795253,6.14545018611673,-0.00382354700663434,1,14.3173041894353,29.9
2.46666666666667,11.8391001200916,25.3075911848113,6.14162494486549,-0.00382524125124117,1,14.2789162112933,29.9
2.5,11.8381585848866,25.5122460489794,6.13779829272444,-0.00382665214105415,1,14.2409836065574,29.9
2.53333333333333,11.8370362574241,25.7167724436977,6.13397120960424,-0.00382708312019542,1,14.2035063752277,29.9
2.56666666666667,11.8357452907653,25.9211702806069,6.13014420777447,-0.00382700182977391,1,14.1664845173042,29.9
2.6,11.8342955233026,26.1254394941739,6.12631776476987,-0.00382644300460111,1,14.1299180327869,29.9
2.63333333333333,11.8326929012009,26.3295800273078,6.12249219639887,-0.00382556837099735,1,14.0938069216758,29.9
2.66666666666667,11.830941727711,26.533591823218,6.1186674305795,-0.00382476581936686,1,14.0581511839709,29.9
2.7,11.8290449103646,26.7374748217566,6.11484347696179,-0.00382395361771604,1,14.0229508196721,29.9
2.73333333333333,11.8270036526848,26.9412289556743,6.11102040199424,-0.0038230749675483,1,13.9882058287796,29.9
2.76666666666667,11.8248174914086,27.1448541478485,6.10719829449811,-0.00382210749613154,1,13.9539162112933,29.9
2.8,11.8224846483101,27.3483503103277,6.1033772338723,-0.00382106062581133,1,13.9200819672131,29.9
2.83333333333333,11.8200025891181,27.5517173455533,6.09955726820148,-0.0038199656708171,1,13.9200819672131,29.9
2.86666666666667,11.8173686452846,27.7549551495141,6.09573840413288,-0.00381886406859877,1,13.9200819672131,29.9
2.9,11.8145805594662,27.9580636160471,6.09192060715991,-0.00381779697296825,1,13.9200819672131,29.9
2.93333333333333,11.8116368536285,28.1610426411986,6.0881038099665,-0.00381679719341754,1,13.9200819672131,29.9
2.96666666666667,11.8085369743788,28.3638921265876,6.08428792628895,-0.00381588367754127,1,13.9200819672131,29.9
3,11.8052812268161,28.5666119810624,6.08047286728422,-0.00381505900473655,1,13.9200819672131,29.9
3.03333333333333,11.8018705521925,28.7692021204561,6.07665855683031,-0.0038143104539099,1,13.9200819672131,29.9
3.06666666666667,11.7983062280231,28.9716624657663,6.07284494235316,-0.00381361447714834,1,13.9200819672131,29.9
3.1,11.7945895704647,29.1739929404446,6.06903199910029,-0.00381294325286596,1,13.9200819672131,29.9
3.13333333333333,11.7907217018073,29.3761934676091,6.06521972783332,-0.00381227126697326,1,13.9200819672131,29.9
3.16666666666667,11.786703418288,29.5782639678904,6.06140814776001,-0.00381158007331095,1,13.9200819672131,29.9
3.2,11.7825351636117,29.7802043583514,6.05759728744023,-0.00381086031977507,1,13.9200819672131,29.9
3.23333333333333,11.7782170888304,29.9820145525823,6.0537871762454,-0.00381011119483787,1,13.9200819672131,29.9
3.26666666666667,11.7737491641945,30.1836944617569,6.04997783810154,-0.00380933814385198,1,13.9200819672131,29.9
3.3,11.7691320056146,30.3852440084528,6.04616894552154,-0.00380889258000661,1,13.9200819672131,29.9
3.33333333333333,11.7643686155844,30.5866631605557,6.04236037179747,-0.00380857372407029,1,13.9200819672131,29.9
3.36666666666667,11.7594623272662,30.7879519008736,6.03855202971851,-0.00380834207896097,1,13.9200819672131,29.9
3.4,11.7544193617672,30.989110278245,6.03474329165869,-0.00380873805981174,1,13.9200819672131,29.9
3.43333333333333,11.7492501649469,31.1901384445928,6.03093397597926,-0.00380931567943499,1,13.9200819672131,29.9
3.46666666666667,11.7439662839825,31.3910366028563,6.02712414099704,-0.00380983498221799,1,13.9200819672131,29.9
3.5,11.7385813503089,31.5918050303636,6.02331377511799,-0.00381036587905026,1,13.9200819672131,29.9
3.53333333333333,11.7331103444601,31.7924440666238,6.01950312347452,-0.00381065164346772,1,13.9200819672131,29.9
3.56666666666667,11.7275684541493,31.9929540883989,6.01569265851469,-0.00381046495983206,1,13.9200819672131,29.9
3.6,11.7219695901253,32.1933354972921,6.01188521214588,-0.00380744636880781,1,13.9200819672131,29.9
3.63333333333333,11.716322817522,32.3935887439269,6.00808816726755,-0.00379704487833354,1,13.9200819672131,29.9
3.66666666666667,11.7106303991556,32.5937143831751,6.00431100798759,-0.0037771592799638,1,13.9200819672131,29.9
3.7,11.7048894975017,32.7937131378887,6.00056266697928,-0.00374834100830856,1,13.9200819672131,29.9
3.73333333333333,11.6990943077323,32.9935859083642,5.9968499441612,-0.00371272281807311,1,13.9200819672131,29.9
3.76666666666667,11.6932376806927,33.1933337306003,5.99317678609011,-0.00367315807108959,1,13.9200819672131,29.9
3.8,11.6873120878527,33.3929636801863,5.99026252953348,-0.00291425655663602,1,13.9200819672131,29.9
3.83333333333333,11.6813086753304,33.5925506498556,5.99120983486799,0.000947305334507931,1,13.9200819672131,29.9
3.86666666666667,11.6752170899778,33.7922551138267,5.99757330734171,0.00636347247371916,1,13.9200819672131,29.9
3.9,11.66902715603,33.9922636303151,6.00963315199941,0.012059844657708,1,13.9200819672131,29.9
3.93333333333333,11.6627295416541,34.192764887854,6.02727376649783,0.0176406144984202,1,13.9200819672131,29.9
3.96666666666667,11.6563160521725,34.3939379798222,6.05006028202773,0.0227865155298979,4,13.9200819672131,29.9
4,11.6497797418728,34.5959459262069,6.07749221035332,0.0274319283255871,4,13.9200819672131,29.9
4.03333333333333,11.6431148207845,34.7989350666655,6.10906902685891,0.0315768165055959,4,13.9200819672131,29.9
4.06666666666667,11.6363164977672,35.0030351699161,6.14429695513737,0.0352279282784531,4,13.9200819672131,29.9
4.1,11.629380781335,35.2083597979028,6.18269772656962,0.0384007714322481,4,13.9200819672131,29.9
4.13333333333333,11.6223042561168,35.4150069349227,6.22381537859706,0.041117652027439,4,13.9200819672131,29.9
4.16666666666667,11.6150838597849,35.6230598782314,6.26722650744781,0.0434111288507566,4,13.9200819672131,29.9
4.2,11.6077166829979,35.8325884826299,6.31254864804054,0.0453221405927255,4,13.9200819672131,29.9
4.23333333333333,11.6001998185227,36.0436505514915,6.35944158226592,0.0468929342253794,4,13.9200819672131,29.9
4.26666666666667,11.5925302736513,36.2562932373049,6.40760701210553,0.0481654298396181,4,13.9200819672131,29.9
4.3,11.5847049443976,36.4705544362772,6.45678824841703,0.0491812363114974,4,13.9200819672131,29.9
4.33333333333333,11.576720638851,36.6864641757574,6.50677139020757,0.0499831417905403,4,13.9200819672131,29.9
4.36666666666667,11.5685741243938,36.9040461614955,6.55739256444117,0.0506211742336022,4,13.9200819672131,29.9
4.4,11.5602621747421,37.1233195394815,6.60854362939992,0.0511510649587423,4,13.9200819672131,29.9
4.43333333333333,11.5517815942497,37.3443009478829,6.66018484178485,0.0516412123849301,4,13.9200819672131,29.9
4.46666666666667,11.5431292038224,37.5670068973394,6.71234617731742,0.0521613355325679,4,13.9200819672131,29.9
4.5,11.5343018079712,37.7914557324936,6.76510201179974,0.0527558344823271,4,13.9200819672131,29.9
4.53333333333333,11.5252961702406,38.017668469125,6.81853179175577,0.0534297799560282,4,13.9200819672131,29.9
4.56666666666667,11.5161090096755,38.2456684033608,6.87268964641522,0.0541578546594526,4,13.9200819672131,29.9
4.6,11.5067370115613,38.475480002036,6.92759055997398,0.0549009135587539,4,13.9200819672131,29.9
4.63333333333333,11.4971768470134,38.7071275177142,6.98320641281845,0.0556158528444692,4,13.9200819672131,29.9
4.66666666666667,11.4874252022528,38.9406335280709,7.03946583928046,0.0562594264620158,4,13.9200819672131,29.9
4.7,11.4774788138456,39.1760176248493,7.09626294706084,0.0567971077803753,4,13.9200819672131,29.9
4.73333333333333,11.4673345018485,39.4132954903659,7.15347235768428,0.0572094106234431,4,13.9200819672131,29.9
