Time,x_ego,y_ego,velocity,acceleration,action,x_ped,y_ped
0,11.8,15.9,7,0,1,15.5,29.9
0.0333333333333333,11.8000033352482,16.1332703793902,6.99615578502647,-0.00384421497352516,1,15.5,29.9
0.0666666666666667,11.8000242039131,16.36640659865,6.99196953179015,-0.0041862532363206,1,15.5,29.9
0.1,11.8000739008388,16.5994007538279,6.98769519447533,-0.0042743373148193,1,15.5,29.9
0.133333333333333,11.8001582830414,16.8322537788342,6.98349808894416,-0.00419710553117181,1,15.5,29.9
0.166666666666667,11.8002769497787,17.0649678611982,6.97935646245322,-0.00414162649093885,1,15.5,29.9
0.2,11.8004174533216,17.2975445773693,6.97525465962747,-0.00410180282575734,1,15.5,29.9
0.233333333333333,11.8005585154333,17.5299850702263,6.97118153980293,-0.00407311982454051,1,15.5,29.9
0.266666666666667,11.8006664076836,17.7622901769165,6.96712943338364,-0.00405210641928999,1,15.5,29.9
0.3,11.8007030267313,17.9944605123385,6.96309328559036,-0.00403614779327643,1,15.5,29.9
0.333333333333333,11.8006443004618,18.2264965160495,6.95906925148271,-0.00402403410765384,1,15.5,29.9
0.366666666666667,11.8004798503064,18.4583984904067,6.95505410321028,-0.00401514827242799,1,15.5,29.9
0.4,11.8002081164481,18.6901666369548,6.95104526667543,-0.0040088365348474,1,15.5,29.9
0.433333333333333,11.7998325307925,18.9218010888404,6.94704086350281,-0.00400440317261896,1,15.5,29.9
0.466666666666667,11.7993589176361,19.1533019366185,6.94303963375209,-0.00400122975072392,1,15.5,29.9
0.5,11.79879397533,19.3846692464506,6.93904078032874,-0.00399885342334638,1,15.5,29.9
0.533333333333333,11.7981445277775,19.6159030715753,6.93504380778653,-0.00399697254221199,1,15.5,29.9
0.566666666666667,11.7974172078919,19.8470034588053,6.93104839930283,-0.00399540848370261,1,15.5,29.9
0.6,11.7966183014198,20.0779704517413,6.92705434089812,-0.00399405840471179,1,15.5,29.9
0.633333333333333,11.7957535888516,20.3088040919346,6.9230614824786,-0.00399285841951258,1,15.5,29.9
0.666666666666667,11.7948281324271,20.5395044188087,6.91906972035239,-0.00399176212621644,1,15.5,29.9
0.7,11.7938460356899,20.7700714689126,6.91507898861209,-0.0039907317402923,1,15.5,29.9
0.733333333333333,11.7928102422728,21.0005052749589,6.91108925186525,-0.00398973674684555,1,15.5,29.9
0.766666666666667,11.7917224406237,21.230805865015,6.90710049654035,-0.00398875532489384,1,15.5,29.9
0.8,11.7905831139298,21.4609732621086,6.90311272121565,-0.00398777532469996,1,15.5,29.9
0.833333333333333,11.7893917352605,21.6910074843814,6.89912592774444,-0.00398679347121611,1,15.5,29.9
0.866666666666667,11.7881470716559,21.9209085457958,6.89514011473272,-0.00398581301171852,1,15.5,29.9
0.9,11.7868475377347,22.1506764572776,6.89115527399186,-0.00398484074085914,1,15.5,29.9
0.933333333333333,11.7854915336959,22.3803112280923,6.88717138973935,-0.00398388425250573,1,15.5,29.9
0.966666666666667,11.7840777130598,22.6098128672072,6.88318843990935,-0.00398294983000103,1,15.5,29.9
1,11.7826051469103,22.8391813844073,6.87920639885869,-0.00398204105066835,1,15.5,29.9
1.03333333333333,11.781073376823,23.0684167910021,6.87522524076158,-0.00398115809710919,1,15.5,29.9
1.06666666666667,11.7794815824997,23.2975190957903,6.87124505182497,-0.00398018893660712,1,15.5,29.9
1.1,11.777826684291,23.5264882937876,6.8672658551374,-0.00397919668757041,1,15.5,29.9
1.13333333333333,11.7761064570083,23.7553243817667,6.86328755415184,-0.00397830098556096,1,15.5,29.9
1.16666666666667,11.7743200091237,23.9840273622344,6.85931008265742,-0.00397747149442118,1,15.5,29.9
1.2,11.7724664761217,24.2125972367386,6.85533352672875,-0.00397655592867086,1,15.5,29.9
1.23333333333333,11.7705419530027,24.4410339853673,6.85135804184093,-0.00397548488781574,1,15.5,29.9
1.26666666666667,11.7685400153704,24.6693375663662,6.84738371781606,-0.00397432402487041,1,15.5,29.9
1.3,11.7664535689477,24.8975079259885,6.84341046478624,-0.00397325302982399,1,15.5,29.9
1.33333333333333,11.7642784178042,25.1255450243391,6.83943808215197,-0.00397238263426836,1,15.5,29.9
1.36666666666667,11.7620131764149,25.3534488463729,6.83546729675258,-0.00397078539938889,1,15.5,29.9
1.4,11.7596582817996,25.5812194763204,6.83150254983803,-0.00396474691454785,1,15.5,29.9
1.43333333333333,11.7572152042015,25.8088572140149,6.82755135541326,-0.00395119442477476,1,15.5,29.9
1.46666666666667,11.7546858872523,26.0363626437145,6.82362255642897,-0.00392879898428511,1,15.5,29.9
1.5,11.7520723936545,26.2637366456145,6.8197245705531,-0.00389798587587542,1,15.5,29.9
1.53333333333333,11.7493775295756,26.4909803635989,6.81586393683835,-0.00386063371474954,1,15.5,29.9
1.56666666666667,11.7466073978698,26.7180951635783,6.81204486282439,-0.00381907401395143,1,15.5,29.9
1.6,11.7437705548108,26.9450825495021,6.80826916961881,-0.00377569320558901,1,15.5,29.9
1.63333333333333,11.7408767601106,27.1719447196321,6.80468819695768,-0.00358097266112622,1,15.5,29.9
1.66666666666667,11.7379347020469,27.3987227666854,6.80394629503752,-0.00074190192015422,1,15.5,29.9
1.7,11.7349480380636,27.6255660185884,6.80886117281453,0.00491487777700605,1,15.5,29.9
1.73333333333333,11.7319163080206,27.8526759532545,6.81996487286936,0.0111037000548295,1,15.5,29.9
1.76666666666667,11.728836654043,28.0802550622792,6.83697892321761,0.0170140503482532,1,15.5,29.9
1.8,11.725705751569,28.3084918121116,6.85934960050563,0.0223706772880155,4,15.5,29.9
1.83333333333333,11.7225224418486,28.5375538427429,6.88643974961216,0.0270901491065354,4,15.5,29.9
1.86666666666667,11.7192847615799,28.7675886425107,6.91764438921884,0.0312046396066794,4,15.5,29.9
1.9,11.7159903760211,28.9987222332019,6.95230474053915,0.0346603513203085,4,15.5,29.9
1.93333333333333,11.712638931186,29.231059828445,6.98983551110552,0.0375307705663674,4,15.5,29.9
1.96666666666667,11.7092300621547,29.464688437491,7.02972951706347,0.0398940059579518,4,15.5,29.9
2,11.7057650170984,29.6996794287815,7.07155253930637,0.0418230222429017,4,15.5,29.9
2.03333333333333,11.7022437789074,29.9360907337685,7.11493168081846,0.0433791415120828,4,15.5,29.9
2.06666666666667,11.6986648846245,30.1739687312646,7.15954740089486,0.0446157200764015,4,15.5,29.9
2.1,11.6950261393264,30.4133500035998,7.20513175371357,0.0455843528187163,4,15.5,29.9
2.13333333333333,11.6913251357902,30.6542629663211,7.25146127159523,0.0463295178816541,4,15.5,29.9
2.16666666666667,11.6875595679526,30.8967292261081,7.29835003608293,0.0468887644877025,4,15.5,29.9
2.2,11.6837282041618,31.1407647609089,7.34564478874749,0.0472947526645617,4,15.5,29.9
2.23333333333333,11.6798327785876,31.3863809913443,7.39322185800588,0.0475770692583923,4,15.5,29.9
2.26666666666667,11.6758744993851,31.6335856210196,7.44098148802086,0.0477596300149754,4,15.5,29.9
2.3,11.6718533873022,31.8823831133189,7.48882072379247,0.0478392357716144,4,15.5,29.9
2.33333333333333,11.6677686812307,32.1327740468878,7.53661866952071,0.0477979457282363,4,15.5,29.9
2.36666666666667,11.6636192014856,32.3847552460902,7.58427072264249,0.0476520531217837,4,15.5,29.9
2.4,11.6594036302063,32.6383202864335,7.63169135489045,0.0474206322479516,4,15.5,29.9
2.43333333333333,11.6551206865663,32.8934606967015,7.67884271983739,0.0471513649469406,4,15.5,29.9
2.46666666666667,11.6507692161771,33.1501669589978,7.72569253491569,0.0468498150783025,4,15.5,29.9
2.5,11.6463482306643,33.4084282731468,7.77219258473335,0.0465000498176593,4,15.5,29.9
2.53333333333333,11.6418569109514,33.6682318348241,7.81827691821871,0.0460843334853642,4,15.5,29.9
2.56666666666667,11.6372945760565,33.9295629549274,7.86390062822273,0.0456237100040182,4,15.5,29.9
2.6,11.6326606386806,34.1924057604785,7.90903590659721,0.0451352783744774,4,15.5,29.9
2.63333333333333,11.6279545713239,34.4567436532357,7.95366637420476,0.0446304676075524,4,15.5,29.9
2.66666666666667,11.623175886302,34.7225595683544,7.9977779931546,0.0441116189498407,4,15.5,29.9
2.7,11.6183241329663,34.9898357958736,8.04134480353426,0.0435668103796587,4,15.5,29.9
2.73333333333333,11.6133989031597,35.2585537008126,8.0843397046164,0.0429949010821407,4,15.5,29.9
2.76666666666667,11.6083998414768,35.5286933132649,8.12669414962251,0.0423544450061133,4,15.5,29.9
2.8,11.6033266926569,35.8002307808737,8.1682434304029,0.0415492807803908,4,15.5,29.9
2.83333333333333,11.5981793666465,36.0731347921571,8.20869325921909,0.0404498288161879,4,15.5,29.9
2.86666666666667,11.5929580273211,36.3473616967648,8.24760095479756,0.0389076955784695,4,15.5,29.9
2.9,11.5876631818457,36.6228507224106,8.28438862647661,0.0367876716790505,4,15.5,29.9
2.93333333333333,11.582295731906,36.8995214819697,8.31849522170743,0.0341065952308153,4,15.5,29.9
2.96666666666667,11.5768569352688,37.1772765274144,8.34942094661675,0.03092572490932,4,15.5,29.9
3,11.5713484287421,37.4560006939819,8.37661130015332,0.0271903535365752,4,15.5,29.9
3.03333333333333,11.5657723479875,37.7355555423217,8.39917671139974,0.0225654112464166,4,15.5,29.9
3.06666666666667,11.5601314197625,38.015775558773,8.41654859687332,0.0173718854735849,1,15.5,29.9
3.1,11.5544286450434,38.296485827355,8.42869837570969,0.0121497788363687,1,15.5,29.9
3.13333333333333,11.5486669267774,38.5775218662094,8.43637061864085,0.00767224293115731,1,15.5,29.9
3.16666666666667,11.542848566849,38.858755251447,8.44078656138822,0.00441594274737334,1,15.5,29.9
3.2,11.536975249385,39.1400936126504,8.44286523540568,0.00207867401745432,1,15.5,29.9
3.23333333333333,11.5310482191222,39.4214706179773,8.44326462999584,0.000399394590161251,1,15.5,29.9
