Time,x_ego,y_ego,velocity,acceleration,action,x_ped,y_ped
0,11.8,8.9,5,0,1,15.5,29.9
0.0333333333333333,11.8000084969128,9.06660768881748,4.99642266656749,-0.00357733343251265,1,15.5,29.9
0.0666666666666667,11.8000630070548,9.23309265201178,4.99264819748004,-0.00377446908744261,1,15.5,29.9
0.1,11.8001959460706,9.39944928651564,4.98873363986449,-0.00391455761555637,1,15.5,29.9
0.133333333333333,11.8004259903709,9.5656735764033,4.98471956334221,-0.00401407652228158,1,15.5,29.9
0.166666666666667,11.8007604524026,9.73176263752423,4.98063454350537,-0.00408501983683252,1,15.5,29.9
0.2,11.8011981959889,9.8977143970112,4.9764986885472,-0.0041358549581787,1,15.5,29.9
0.233333333333333,11.8017324821326,10.063527368792,4.9723262695643,-0.00417241898290044,1,15.5,29.9
0.266666666666667,11.8023533809798,10.2292004952815,4.96812756296598,-0.00419870659831378,1,15.5,29.9
0.3,11.8030508382209,10.3947330318851,4.96391037978191,-0.00421718318407116,1,15.5,29.9
0.333333333333333,11.8038189335354,10.5601244562557,4.95968042983137,-0.00422994995054005,1,15.5,29.9
0.366666666666667,11.8046523848256,10.7253744085731,4.95544173744657,-0.00423869238479568,1,15.5,29.9
0.4,11.805547254405,10.8904826442349,4.95119719889663,-0.004244538549945,1,15.5,29.9
0.433333333333333,11.8064993081553,11.055449003899,4.94694877573588,-0.00424842316074514,1,15.5,29.9
0.466666666666667,11.8075040646913,11.2202733904022,4.94269791705393,-0.00425085868195207,1,15.5,29.9
0.5,11.8085574731382,11.3849557501981,4.93844571980172,-0.00425219725221382,1,15.5,29.9
0.533333333333333,11.8096570461557,11.5494960568442,4.93419318943202,-0.0042525303697003,1,15.5,29.9
0.566666666666667,11.8108036244067,11.7138942935171,4.92994104815668,-0.00425214127534268,1,15.5,29.9
0.6,11.8119989532191,11.8781504529695,4.92568966710706,-0.00425138104962031,1,15.5,29.9
0.633333333333333,11.8132448572032,12.0422645362172,4.92143930928491,-0.00425035782214778,1,15.5,29.9
0.666666666666667,11.8145430552193,12.2062365506737,4.91719015383006,-0.0042491554548425,1,15.5,29.9
0.7,11.8158949592083,12.37006650941,4.9129423141076,-0.00424783972246967,1,15.5,29.9
0.733333333333333,11.8173015040133,12.5337544310538,4.90869585339598,-0.00424646071161394,1,15.5,29.9
0.766666666666667,11.8187630493952,12.6973003398688,4.90445079999601,-0.0042450533999725,1,15.5,29.9
0.8,11.8202793772253,12.860704265637,4.90020716195138,-0.00424363804463024,1,15.5,29.9
0.833333333333333,11.821849783102,13.0239662431136,4.89596494038294,-0.00424222156844056,1,15.5,29.9
0.866666666666667,11.8234732396098,13.1870863110029,4.89172413987847,-0.00424080050447184,1,15.5,29.9
0.9,11.8251485938491,13.3500645105721,4.88748477459057,-0.00423936528789959,1,15.5,29.9
0.933333333333333,11.8268735782561,13.5129008930139,4.88324654726758,-0.00423822732298174,1,15.5,29.9
0.966666666666667,11.8286408898187,13.6755955518126,4.87900902452137,-0.00423752274621148,1,15.5,29.9
1,11.8304383177662,13.8381486293334,4.87477192736536,-0.00423709715601817,1,15.5,29.9
1.03333333333333,11.8322487887818,14.0005603230058,4.87053522281372,-0.00423670455163094,1,15.5,29.9
1.06666666666667,11.8340533490383,14.1628308639559,4.86629949229089,-0.00423573052283466,1,15.5,29.9
1.1,11.8358372642173,14.3249604608389,4.86206550456716,-0.00423398772372874,1,15.5,29.9
1.13333333333333,11.8375915200397,14.4869492768323,4.85783379286928,-0.00423171169788095,1,15.5,29.9
1.16666666666667,11.8393138478146,14.6487974117429,4.85360456421367,-0.00422922865560604,1,15.5,29.9
1.2,11.841007305133,14.8105049096804,4.84937772515305,-0.00422683906062638,1,15.5,29.9
1.23333333333333,11.8426783440106,14.9720717757329,4.84515306880502,-0.00422465634802371,1,15.5,29.9
1.26666666666667,11.8443346054242,15.1334979977666,4.84093035504295,-0.0042227137620694,1,15.5,29.9
1.3,11.8459822412934,15.2947835736732,4.83670943101508,-0.00422092402787744,1,15.5,29.9
1.33333333333333,11.8476268496775,15.4559285042103,4.83249019883171,-0.00421923218336673,1,15.5,29.9
1.36666666666667,11.849270886276,15.6169328188202,4.82827254576466,-0.00421765306705346,1,15.5,29.9
1.4,11.8509108939629,15.7777966036855,4.8240563744797,-0.00421617128495466,1,15.5,29.9
1.43333333333333,11.8525368403268,15.938520009758,4.81984170769265,-0.00421466678705151,1,15.5,29.9
1.46666666666667,11.8541354821211,16.0991032206862,4.81562869220346,-0.00421301548919306,1,15.5,29.9
1.5,11.8556908514287,16.259546446661,4.81141757750318,-0.0042111147002819,1,15.5,29.9
1.53333333333333,11.8571879095647,16.4198498855808,4.80720860762832,-0.00420896987485797,1,15.5,29.9
1.56666666666667,11.8586162365743,16.5800136835086,4.80300182081614,-0.00420678681217979,1,15.5,29.9
1.6,11.859971992716,16.7400379145054,4.79879700110255,-0.00420481971358733,1,15.5,29.9
1.63333333333333,11.861256750843,16.8999225944961,4.79459382323217,-0.00420317787038194,1,15.5,29.9
1.66666666666667,11.8624757634827,17.0596677025935,4.79039198982947,-0.00420183340269631,1,15.5,29.9
1.7,11.8636364985279,17.2192731997319,4.78619130561364,-0.00420068421583331,1,15.5,29.9
1.73333333333333,11.8647474805805,17.3787390428701,4.78199169142395,-0.00419961418969272,1,15.5,29.9
1.76666666666667,11.8658179941357,17.5380651895293,4.77779306297863,-0.00419862844532037,1,15.5,29.9
1.8,11.8668594061891,17.6972515873757,4.77359536172406,-0.00419770125456598,1,15.5,29.9
1.83333333333333,11.8678842307047,17.8562981830568,4.76939866341352,-0.00419669831054303,1,15.5,29.9
1.86666666666667,11.8689048688377,18.0152049319398,4.76520314650148,-0.00419551691203779,1,15.5,29.9
1.9,11.8699319164407,18.1739718096716,4.76100910701346,-0.00419403948801556,1,15.5,29.9
1.93333333333333,11.8709715358379,18.332598829788,4.75681681150434,-0.00419229550912004,1,15.5,29.9
1.96666666666667,11.8720254683829,18.4910860400338,4.75262637537037,-0.00419043613397108,1,15.5,29.9
2,11.8730919643927,18.6494335130546,4.74843780377572,-0.0041885715946508,1,15.5,29.9
2.03333333333333,11.8741668356208,18.8076413375942,4.74425104518611,-0.00418675858961493,1,15.5,29.9
2.06666666666667,11.8752444986299,18.9657096105975,4.74006603436958,-0.00418501081653044,1,15.5,29.9
2.1,11.8763189095493,19.1236384304854,4.73588271604715,-0.00418331832242291,1,15.5,29.9
2.13333333333333,11.8773843232807,19.2814278918278,4.73170105104872,-0.0041816649984332,1,15.5,29.9
2.16666666666667,11.8784358411477,19.4390780815904,4.72752101203211,-0.00418003901661468,1,15.5,29.9
2.2,11.8794697387439,19.5965890770179,4.72334257626875,-0.00417843576335297,1,15.5,29.9
2.23333333333333,11.8804835890295,19.7539609450638,4.71916572059215,-0.00417685567660619,1,15.5,29.9
2.26666666666667,11.8814762134778,19.9111937431159,4.71499042036523,-0.00417530022691803,1,15.5,29.9
2.3,11.8824475055103,20.0682875206549,4.7108166517293,-0.004173768635928,1,15.5,29.9
2.33333333333333,11.8833981753039,20.2252423214314,4.70664439513415,-0.00417225659515363,1,15.5,29.9
2.36666666666667,11.8843294636375,20.3820581857653,4.70247363817893,-0.00417075695521785,1,15.5,29.9
2.4,11.8852428657935,20.5387351526467,4.69830437662389,-0.00416926155503372,1,15.5,29.9
2.43333333333333,11.8861398962006,20.6952732614214,4.694136613452,-0.00416776317189971,1,15.5,29.9
2.46666666666667,11.8870219123919,20.8516725529561,4.68997035660214,-0.00416625684985128,1,15.5,29.9
2.5,11.8878905866923,21.0079330665201,4.68580556985105,-0.00416478675109744,1,15.5,29.9
2.53333333333333,11.8887498306467,21.1640548276506,4.68164220267637,-0.00416336717467303,1,15.5,29.9
2.56666666666667,11.8896048223643,21.3200378551607,4.67748029078797,-0.00416191188840376,1,15.5,29.9
2.6,11.8904592261041,21.4758821787379,4.67331990834851,-0.00416038243945493,1,15.5,29.9
2.63333333333333,11.891314810792,21.631587841513,4.66916123966084,-0.00415866868767178,1,15.5,29.9
2.66666666666667,11.8921718389473,21.7871549326831,4.66500719266671,-0.00415404699413457,1,15.5,29.9
2.7,11.8930295007557,21.9425837345289,4.66086588454499,-0.00414130812172342,1,15.5,29.9
2.73333333333333,11.8938863193227,22.097874856198,4.65674810357214,-0.0041177809728401,1,15.5,29.9
2.76666666666667,11.8947404859821,22.2530292786172,4.65266498734204,-0.00408311623010338,1,15.5,29.9
2.8,11.8955901131329,22.4080483419471,4.64862676197411,-0.00403822536793275,1,15.5,29.9
2.83333333333333,11.8964334111567,22.5629336989358,4.64464190342949,-0.00398485854462027,1,15.5,29.9
2.86666666666667,11.8972688052312,22.7176872531247,4.64071714700674,-0.00392475642275336,1,15.5,29.9
2.9,11.898095008862,22.8723111088213,4.63685795609488,-0.00385919091185816,1,15.5,29.9
2.93333333333333,11.8989110665119,23.0268075286987,4.63306839922135,-0.00378955687353066,1,15.5,29.9
2.96666666666667,11.8997163715736,23.1811788757998,4.62935036072257,-0.00371803849877583,1,15.5,29.9
3,11.9005106610497,23.3354275186307,4.62568842190696,-0.00366193881560939,1,15.5,29.9
3.03333333333333,11.9012940781463,23.4895720689675,4.62400175636322,-0.00168666554374575,1,15.5,29.9
3.06666666666667,11.9020678994791,23.6437876451858,4.63078051934397,0.00677876298075741,1,15.5,29.9
3.1,11.9028344535143,23.7984097196388,4.64852772839263,0.0177472090486548,1,15.5,29.9
3.13333333333333,11.9035962926739,23.9538063434536,4.67708831469812,0.0285605863054892,4,15.5,29.9
3.16666666666667,11.9043557598133,24.1103183151524,4.71523182960095,0.0381435149028357,4,15.5,29.9
3.2,11.9051148191622,24.2682435105491,4.76165722454046,0.0464253949395079,4,15.5,29.9
3.23333333333333,11.9058749944612,24.4278357674147,4.81504073502958,0.0533835104891214,4,15.5,29.9
3.26666666666667,11.9066373516731,24.5893059796868,4.8741318704708,0.0590911354412142,4,15.5,29.9
3.3,11.9074025230688,24.7528247453808,4.93777284420588,0.063640973735084,4,15.5,29.9
3.33333333333333,11.9081707677553,24.9185266916371,5.00497673673492,0.0672038925290366,4,15.5,29.9
3.36666666666667,11.9089420621215,25.0865171589209,5.07497437023134,0.0699976334964205,4,15.5,29.9
3.4,11.9097161978259,25.2568792725924,5.1471937018954,0.0722193316640629,4,15.5,29.9
3.43333333333333,11.9104928666268,25.4296795321941,5.22120302497553,0.0740093230801255,4,15.5,29.9
3.46666666666667,11.9112717264005,25.6049724008824,5.29671395466759,0.0755109296920624,4,15.5,29.9
3.5,11.9120524496405,25.7828049860379,5.37356730621687,0.0768533515492837,4,15.5,29.9
3.53333333333333,11.9128347489526,25.9632207328125,5.45169968279542,0.0781323765785524,4,15.5,29.9
3.56666666666667,11.913618384993,26.1462625518284,5.53114053200314,0.0794408492077183,4,15.5,29.9
3.6,11.914403161417,26.331975215182,5.61195927627241,0.0808187442692647,4,15.5,29.9
3.63333333333333,11.9151889063905,26.5204056843197,5.6942129288235,0.0822536525510884,4,15.5,29.9
3.66666666666667,11.9159754493349,26.7116020741615,5.77790706201421,0.0836941331907166,4,15.5,29.9
3.7,11.9167625981443,26.9056116198052,5.86298619533103,0.0850791333168166,4,15.5,29.9
3.73333333333333,11.9175501226204,27.1024785748055,5.94931925711837,0.0863330617873439,4,15.5,29.9
3.76666666666667,11.9183377417034,27.3022415948706,6.0367177326688,0.0873984755504242,4,15.5,29.9
3.8,11.9191251246506,27.504933241782,6.12500813485808,0.0882904021892799,4,15.5,29.9
3.83333333333333,11.9199118980441,27.7105803413143,6.21400800292636,0.088999868068286,4,15.5,29.9
3.86666666666667,11.9206976470839,27.9192029946449,6.30350971163503,0.0895017087086645,4,15.5,29.9
3.9,11.9214819229975,28.13081525682,6.39336285446706,0.0898531428320313,4,15.5,29.9
3.93333333333333,11.9222642524511,28.3454267185402,6.48343345873403,0.0900706042669759,4,15.5,29.9
3.96666666666667,11.9230441368135,28.5630420629752,6.57357684450896,0.0901433857749216,4,15.5,29.9
4,11.9238210580066,28.7836624749711,6.66373090871043,0.0901540642014727,4,15.5,29.9
4.03333333333333,11.9245944876747,29.0072880377955,6.75388368450782,0.0901527757973897,4,15.5,29.9
4.06666666666667,11.9253638901979,29.2339186362041,6.84402952515431,0.0901458406464881,4,15.5,29.9
4.1,11.9261287226924,29.4635539845802,6.93416774826461,0.0901382231103041,4,15.5,29.9
4.13333333333333,11.9268884369229,29.6961940000935,7.02430967893577,0.0901419306711615,4,15.5,29.9
4.16666666666667,11.9276424810901,29.9318390419106,7.11446943468246,0.0901597557466918,4,15.5,29.9
4.2,11.928390300885,30.1704899212687,7.20465963868256,0.0901902040000948,4,15.5,29.9
4.23333333333333,11.9291313400944,30.4121478247315,7.29489011196107,0.0902304732785089,4,15.5,29.9
4.26666666666667,11.9298650408059,30.6568142185848,7.38516786157797,0.090277749616904,4,15.5,29.9
4.3,11.9305908432267,30.9044907622026,7.47549754475329,0.0903296831753213,4,15.5,29.9
4.33333333333333,11.9313073297052,31.1551788402167,7.56583700667047,0.0903394619171811,4,15.5,29.9
4.36666666666667,11.9320085294502,31.4088763531543,7.65604368545723,0.0902066787867568,4,15.5,29.9
4.4,11.9326819835241,31.6656677464778,7.75375456172178,0.0977108762645482,4,15.5,29.9
4.43333333333333,11.9333113834918,31.925894847447,7.86085938479485,0.107104823073067,4,15.5,29.9
4.46666666666667,11.9338785087207,32.1897554120006,7.97091004181584,0.110050657020993,4,15.5,29.9
4.5,11.934368470937,32.4572758638097,8.07994919894794,0.109039157132102,4,15.5,29.9
4.53333333333333,11.9347730005701,32.728381482245,8.18573288203375,0.105783683085813,4,15.5,29.9
4.56666666666667,11.935088620924,33.0029407570609,8.28703737768674,0.101304495652984,4,15.5,29.9
4.6,11.9353143440055,33.2807962786795,8.38348710420952,0.0964497265227795,4,15.5,29.9
4.63333333333333,11.9354501631393,33.5617864686301,8.47515041919396,0.0916633149844372,4,15.5,29.9
4.66666666666667,11.9354962403895,33.8457566992207,8.56235828687339,0.0872078676794352,4,15.5,29.9
4.7,11.9354525960807,34.1325660870874,8.64558474229638,0.0832264554229916,4,15.5,29.9
4.73333333333333,11.9353201016815,34.422090428012,8.72534102764208,0.0797562853457006,4,15.5,29.9
4.76666666666667,11.9351037295805,34.7142221769901,8.80210724529133,0.0767662176492436,4,15.5,29.9
4.8,11.9348104243602,35.0088686307521,8.87627939566617,0.0741721503748405,4,15.5,29.9
4.83333333333333,11.9344444225679,35.3059475888216,8.94809856663173,0.0718191709655596,4,15.5,29.9
4.86666666666667,11.9340083615399,35.6053849628265,9.01785028076902,0.0697517141372934,4,15.5,29.9
4.9,11.9335065564987,35.9071180509278,9.08590582188759,0.0680555411185679,4,15.5,29.9
4.93333333333333,11.9329412883629,36.2110954421417,9.15255097003512,0.0666451481475328,4,15.5,29.9
4.96666666666667,11.932312692039,36.5172732215678,9.21796436716379,0.0654133971286708,4,15.5,29.9
5,11.931620697169,36.8256131235316,9.28231490437814,0.0643505372143451,4,15.5,29.9
5.03333333333333,11.9308688966724,37.1360825731282,9.34577376971814,0.0634588653400083,4,15.5,29.9
5.06666666666667,11.9300639153224,37.4486546139282,9.40850291477447,0.0627291450563252,4,15.5,29.9
5.1,11.9292138076281,37.7633071919305,9.47063029323757,0.0621273784630976,4,15.5,29.9
5.13333333333333,11.9283262398932,38.0800218236822,9.53224252669497,0.0616122334574047,4,15.5,29.9
5.16666666666667,11.927404628373,38.3987822285999,9.5933887370099,0.0611462103149325,4,15.5,29.9
5.2,11.9264491929144,38.7195736180466,9.65411492863536,0.0607261916254505,4,15.5,29.9
5.23333333333333,11.9254586982798,39.0423828121483,9.71447074077629,0.0603558121409318,4,15.5,29.9
