Time,x_ego,y_ego,velocity,acceleration,action,x_ped,y_ped
0,11.8,15.9,7,0,1,15.5,29.9
0.0333333333333333,11.8,16.1332703793943,6.99615577953002,-0.00384422046998356,1,15.4502170138889,29.9
0.0666666666666667,11.8,16.3664065988113,6.99196947109348,-0.00418630843653833,1,15.4008680555556,29.9
0.1,11.8,16.5994007552791,6.98769498718995,-0.00427448390352669,1,15.351953125,29.9
0.133333333333333,11.8,16.8322537852842,6.9834976545359,-0.00419733265404787,1,15.3034722222222,29.9
0.166666666666667,11.8,17.0649678802301,6.97935585456763,-0.00414179996826913,1,15.2554253472222,29.9
0.2,11.8,17.2975446186632,6.97525409491249,-0.00410175965514537,1,15.2078125,29.9
0.233333333333333,11.8,17.5299851399444,6.97118127319767,-0.00407282171482137,1,15.1606336805556,29.9
0.266666666666667,11.8,17.7622902687052,6.96712943294736,-0.00405184025031069,1,15.1138888888889,29.9
0.3,11.8,17.9944606040335,6.96309287213007,-0.00403656081728965,1,15.067578125,29.9
0.333333333333333,11.8,18.2264965833863,6.95906750439986,-0.00402536773020401,1,15.0217013888889,29.9
0.366666666666667,11.8,18.4583985283897,6.95505040137947,-0.00401710302039238,1,14.9762586805556,29.9
0.4,11.8,18.6901666776599,6.95103946463339,-0.00401093674607722,1,14.93125,29.9
0.433333333333333,11.8,18.9218012103233,6.94703319054231,-0.00400627409108711,1,14.8866753472222,29.9
0.466666666666667,11.8,19.1533022628712,6.94303050173604,-0.00400268880626342,1,14.8425347222222,29.9
0.5,11.8,19.3846699412377,6.93903062623031,-0.00399987550573222,1,14.798828125,29.9
0.533333333333333,11.8,19.6159043294559,6.93503301077307,-0.00399761545723631,1,14.7555555555556,29.9
0.566666666666667,11.8,19.8470054958598,6.93103725873891,-0.00399575203416092,1,14.7127170138889,29.9
0.6,11.8,20.0779734975296,6.92704308564579,-0.003994173093127,1,14.6703125,29.9
0.633333333333333,11.7999910119293,20.3086928477234,6.91611832189349,-0.0109247637522953,1,14.6283420138889,29.9
0.666666666666667,11.799934745732,20.5386731261753,6.88269975411207,-0.0334185677814203,3,14.5868055555556,29.9
0.7,11.7998007569608,20.7673375092909,6.83716695206189,-0.0455328020501824,3,14.545703125,29.9
0.733333333333333,11.7995734476685,20.9941960758171,6.77435570253382,-0.0628112495280728,3,14.5050347222222,29.9
0.766666666666667,11.799247915034,21.21852827115,6.68559272265441,-0.0887629798794087,3,14.4648003472222,29.9
0.8,11.7988262057469,21.4396423585467,6.58127994688996,-0.104312775764445,3,14.425,29.9
0.833333333333333,11.7983143226094,21.6571642577327,6.47007446909373,-0.111205477796228,3,14.3856336805556,29.9
0.866666666666667,11.7977203736707,21.8707773770238,6.34676833426272,-0.123306134831015,3,14.3467013888889,29.9
0.9,11.7970536945492,22.0799922671372,6.20619767232979,-0.140570661932924,3,14.308203125,29.9
0.933333333333333,11.7963249293226,22.2843486462903,6.05527555351589,-0.150922118813908,3,14.2701388888889,29.9
0.966666666666667,11.7955473353765,22.4835302028227,5.89572606374228,-0.159549489773608,3,14.2325086805556,29.9
1,11.7947339328929,22.6771051622298,5.71889673870842,-0.176829325033854,3,14.1953125,29.9
1.03333333333333,11.7938974786085,22.8644979583567,5.5248116951483,-0.194085043560125,3,14.1585503472222,29.9
1.06666666666667,11.7930515242517,23.0452486556197,5.32038348039717,-0.204428214751131,3,14.1222222222222,29.9
1.1,11.7922073912464,23.2190986675931,5.11077999581117,-0.209603484586004,3,14.086328125,29.9
1.13333333333333,11.7913738104195,23.3858472155338,4.89430172365336,-0.216478272157804,3,14.0508680555556,29.9
1.16666666666667,11.7905569743138,23.5453803820602,4.67785968655818,-0.21644203709518,3,14.0158420138889,29.9
1.2,11.789761254224,23.697699432698,4.46145377339013,-0.216405913168047,3,13.98125,29.9
1.23333333333333,11.7889911386291,23.8428333756603,4.2467223538991,-0.214731419491036,3,13.9470920138889,29.9
1.26666666666667,11.788249529692,23.9807793642384,4.03017772047071,-0.21654463342839,3,13.9133680555556,29.9
1.3,11.7875378651207,24.1114487646236,3.81012361296844,-0.22005410750227,3,13.9133680555556,29.9
1.33333333333333,11.7868569269876,24.2347542815543,3.5883384615095,-0.221785151458934,3,13.9133680555556,29.9
1.36666666666667,11.7862087852607,24.3506673550812,3.36656911842697,-0.221769343082532,3,13.9133680555556,29.9
1.4,11.7855967019546,24.4591888155437,3.14483318236324,-0.221735936063735,3,13.9133680555556,29.9
1.43333333333333,11.7850233254893,24.5603199723381,2.92314309422796,-0.22169008813528,3,13.9133680555556,29.9
1.46666666666667,11.7844908040166,24.6540624705282,2.7015074008078,-0.221635693420154,3,13.9133680555556,29.9
1.5,11.7840021734688,24.7404181938595,2.47993179870716,-0.221575602100647,3,13.9133680555556,29.9
1.53333333333333,11.783560898493,24.8193891892313,2.25841998844828,-0.221511810258878,3,13.9133680555556,29.9
1.56666666666667,11.7831690301736,24.8909807311932,2.03737552979379,-0.221044458654488,3,13.9133680555556,29.9
1.6,11.7828267796729,24.9552387016952,1.818682035468,-0.21869349432579,3,13.9133680555556,29.9
1.63333333333333,11.7825328754405,25.0122601200491,1.60324724257517,-0.215434792892829,3,13.9133680555556,29.9
1.66666666666667,11.7822851535301,25.0621588451755,1.39135377936049,-0.211893463214683,3,13.9133680555556,29.9
1.7,11.7820810007056,25.105055980408,1.18316852077457,-0.208185258585917,3,13.9133680555556,29.9
1.73333333333333,11.7819176947564,25.1410767861091,0.978793368575337,-0.204375152199234,3,13.9133680555556,29.9
1.76666666666667,11.7817926344865,25.1703522281783,0.778487584905126,-0.200305783670211,3,13.9133680555556,29.9
1.8,11.7817034834232,25.1930200356397,0.582316632401638,-0.196170952503489,3,13.9133680555556,29.9
1.83333333333333,11.7816482727245,25.209218000216,0.39031592796706,-0.192000704434577,3,13.9133680555556,29.9
1.86666666666667,11.7816254043551,25.2190867124959,0.202555702379826,-0.187760225587234,3,13.9133680555556,29.9
1.9,11.7816336388581,25.2227675450177,0.0192429319030556,-0.183312770476771,3,13.9133680555556,29.9
1.93333333333333,11.7816693807301,25.2209908250924,0.0773396254974697,0.058096693594414,4,13.9133680555556,29.9
1.96666666666667,11.7817109300999,25.2184139409941,0.00200932124333537,-0.0753303042541343,3,13.9133680555556,29.9
2,11.7817109300999,25.2184139409941,0.00295427880146401,0.000944957558128643,5,13.9133680555556,29.9
2.03333333333333,11.7817109300999,25.2184139409941,0.00465428518750157,0.00170000638603756,5,13.9133680555556,29.9
2.06666666666667,11.7817109300999,25.2184139409941,0.00691966766933316,0.00226538248183158,5,13.9133680555556,29.9
2.1,11.7817109300999,25.2184139409941,0.00949185150140876,0.00257218383207561,5,13.9133680555556,29.9
2.13333333333333,11.7817109300999,25.2184139409941,0.0120818815718853,0.00259003007047654,5,13.9133680555556,29.9
2.16666666666667,11.7817109300999,25.2184139409941,0.0144056154638678,0.00232373389198253,5,13.9133680555556,29.9
2.2,11.7817109300999,25.2184139409941,0.0162131362807648,0.00180752081689702,5,13.9133680555556,29.9
2.23333333333333,11.7817109300999,25.2184139409941,0.0173108049805054,0.00109766869974056,5,13.9133680555556,29.9
2.26666666666667,11.7817109300999,25.2184139409941,0.0175752183879045,0.000264413407399092,5,13.9133680555556,29.9
2.3,11.7817109300999,25.2184139409941,0.0169591020399352,-0.000616116347969351,5,13.9133680555556,29.9
2.33333333333333,11.7817109300999,25.2184139409941,0.0154898039290106,-0.00146929811092458,5,13.9133680555556,29.9
2.36666666666667,11.7817109300999,25.2184139409941,0.0132615396001007,-0.00222826432890986,5,13.9133680555556,29.9
2.4,11.7817109300999,25.2184139409941,0.0104228598470127,-0.00283867975308803,5,13.9133680555556,29.9
2.43333333333333,11.7817109300999,25.2184139409941,0.00716097196293215,-0.00326188788408052,5,13.9133680555556,29.9
2.46666666666667,11.7817109300999,25.2184139409941,0.003684557840451,-0.00347641412248115,5,13.9133680555556,29.9
2.5,11.7817109300999,25.2184139409941,0.000206619291219176,-0.00347793854923182,5,13.9133680555556,29.9
2.53333333333333,11.7817109300999,25.2184139409941,0.00307132965550729,0.00286471036428812,5,13.9133680555556,29.9
2.56666666666667,11.7817109300999,25.2184139409941,0.00597268178168069,0.0029013521261734,5,13.9133680555556,29.9
2.6,11.7817109300999,25.2184139409941,0.00835604052970543,0.00238335874802474,5,13.9133680555556,29.9
2.63333333333333,11.7817109300999,25.2184139409941,0.0101220061830606,0.00176596565335517,5,13.9133680555556,29.9
2.66666666666667,11.7817109300999,25.2184139409941,0.0112163501513755,0.00109434396831492,5,13.9133680555556,29.9
2.7,11.7817109300999,25.2184139409941,0.0116297558957689,0.000413405744393405,5,13.9133680555556,29.9
2.73333333333333,11.7817109300999,25.2184139409941,0.0113945280184675,-0.000235227877301472,5,13.9133680555556,29.9
2.76666666666667,11.7817109300999,25.2184139409941,0.0105788355982113,-0.000815692420256166,5,13.9133680555556,29.9
2.8,11.7817109300999,25.2184139409941,0.00927915868354118,-0.0012996769146701,5,13.9133680555556,29.9
2.83333333333333,11.7817109300999,25.2184139409941,0.00761164943764354,-0.00166750924589765,5,13.9133680555556,29.9
2.86666666666667,11.7817109300999,25.2184139409941,0.00570310719151128,-0.00190854224613226,5,13.9133680555556,29.9
2.9,11.7817109300999,25.2184139409941,0.00368220802539943,-0.00202089916611184,5,13.9133680555556,29.9
2.93333333333333,11.7817109300999,25.2184139409941,0.00167153484877882,-0.00201067317662061,5,13.9133680555556,29.9
2.96666666666667,11.7817109300999,25.2184139409941,0.000219165356673367,-0.00145236949210546,5,13.9133680555556,29.9
3,11.7817109300999,25.2184139409941,0.00189820301302295,0.00167903765634958,5,13.9133680555556,29.9
3.03333333333333,11.7817109300999,25.2184139409941,0.00329548711599587,0.00139728410297292,5,13.9133680555556,29.9
3.06666666666667,11.7817109300999,25.2184139409941,0.00436435535329686,0.00106886823730099,5,13.9133680555556,29.9
3.1,11.7817109300999,25.2184139409941,0.00508177629799567,0.000717420944698811,5,13.9133680555556,29.9
3.13333333333333,11.7817109300999,25.2184139409941,0.00544710069222601,0.000365324394230345,5,13.9133680555556,29.9
3.16666666666667,11.7817109300999,25.2184139409941,0.00547960926125171,3.25085690256934e-05,5,13.9133680555556,29.9
3.2,11.7817109300999,25.2184139409941,0.0052151500041102,-0.000264459257141508,5,13.9133680555556,29.9
3.23333333333333,11.7817109300999,25.2184139409941,0.00470217887069447,-0.000512971133415731,5,13.9133680555556,29.9
3.26666666666667,11.7817109300999,25.2184139409941,0.00399751607747469,-0.000704662793219772,5,13.9133680555556,29.9
3.3,11.7817109300999,25.2184139409941,0.00316210915606462,-0.000835406921410071,5,13.9133680555556,29.9
3.33333333333333,11.7817109300999,25.2184139409941,0.00225705711814681,-0.000905052037917814,5,13.9133680555556,29.9
3.36666666666667,11.7817109300999,25.2184139409941,0.00134010225871389,-0.000916954859432922,5,13.9133680555556,29.9
3.4,11.7817109300999,25.2184139409941,0.000462741615421682,-0.000877360643292205,5,13.9133680555556,29.9
3.43333333333333,11.7817109300999,25.2184139409941,0.000331946734382389,-0.000130794881039293,5,13.9133680555556,29.9
3.46666666666667,11.7817109300999,25.2184139409941,0.00101072266028523,0.000678775925902843,5,13.9133680555556,29.9
3.5,11.7817109300999,25.2184139409941,0.00155085890277793,0.000540136242492697,5,13.9133680555556,29.9
3.53333333333333,11.7817109300999,25.2184139409941,0.00194012585764616,0.000389266954868229,5,13.9133680555556,29.9
3.56666666666667,11.7817109300999,25.2184139409941,0.00217617445492333,0.000236048597277176,5,13.9133680555556,29.9
3.6,11.7817109300999,25.2184139409941,0.00226542981528742,8.92553603640887e-05,5,13.9133680555556,29.9
3.63333333333333,11.7817109300999,25.2184139409941,0.00222162278560688,-4.3807029680537e-05,5,13.9133680555556,29.9
3.66666666666667,11.7817109300999,25.2184139409941,0.00206409131968593,-0.000157531465920952,5,13.9133680555556,29.9
3.7,11.7817109300999,25.2184139409941,0.00181597997826609,-0.000248111341419838,5,13.9133680555556,29.9
3.73333333333333,11.7817109300999,25.2184139409941,0.00150245495915682,-0.000313525019109272,5,13.9133680555556,29.9
3.76666666666667,11.7817109300999,25.2184139409941,0.00114903566583753,-0.000353419293319291,5,13.9133680555556,29.9
3.8,11.7817109300999,25.2184139409941,0.0007801236240946,-0.000368912041742932,5,13.9133680555556,29.9
3.83333333333333,11.7817109300999,25.2184139409941,0.000417787292745138,-0.000362336331349462,5,13.9133680555556,29.9
3.86666666666667,11.7817109300999,25.2184139409941,8.0838601769269e-05,-0.000336948690975869,5,13.9133680555556,29.9
3.9,11.7817109300999,25.2184139409941,0.000215784693476702,0.000134946091707433,5,13.9133680555556,29.9
3.93333333333333,11.7817109300999,25.2184139409941,0.000461336368949189,0.000245551675472487,5,13.9133680555556,29.9
3.96666666666667,11.7817109300999,25.2184139409941,0.000649300942681343,0.000187964573732154,5,13.9133680555556,29.9
4,11.7817109300999,25.2184139409941,0.00077718993087,0.000127888988188657,5,13.9133680555556,29.9
4.03333333333333,11.7817109300999,25.2184139409941,0.000846139544994462,6.89496141244623e-05,5,13.9133680555556,29.9
4.06666666666667,11.7817109300999,25.2184139409941,0.000860359578932366,1.42200339379044e-05,5,13.9133680555556,29.9
4.1,11.7817109300999,25.2184139409941,0.000826484959566608,-3.38746193657583e-05,5,13.9133680555556,29.9
4.13333333333333,11.7817109300999,25.2184139409941,0.000752879936449435,-7.36050231171732e-05,5,13.9133680555556,29.9
4.16666666666667,11.7817109300999,25.2184139409941,0.0006489407051201,-0.000103939231329335,5,13.9133680555556,29.9
4.2,11.7817109300999,25.2184139409941,0.000524436015913517,-0.000124504689206582,5,13.9133680555556,29.9
4.23333333333333,11.7817109300999,25.2184139409941,0.000388917669884808,-0.00013551834602871,5,13.9133680555556,29.9
4.26666666666667,11.7817109300999,25.2184139409941,0.000251224389595024,-0.000137693280289784,5,13.9133680555556,29.9
4.3,11.7817109300999,25.2184139409941,0.000119093971561791,-0.000132130418033233,5,13.9133680555556,29.9
4.33333333333333,11.7817109300999,25.2184139409941,1.10959986349786e-06,-0.000117984371698293,5,13.9133680555556,29.9
4.36666666666667,11.7817109300999,25.2184139409941,0.000104554845044578,0.00010344524518108,5,13.9133680555556,29.9
4.4,11.7817109300999,25.2184139409941,0.000187994405195331,8.34395601507536e-05,5,13.9133680555556,29.9
4.43333333333333,11.7817109300999,25.2184139409941,0.000249721741272854,6.17273360775233e-05,5,13.9133680555556,29.9
4.46666666666667,11.7817109300999,25.2184139409941,0.000289448706677366,3.97269654045112e-05,5,13.9133680555556,29.9
4.5,11.7817109300999,25.2184139409941,0.000308122000394503,1.86732937171378e-05,5,13.9133680555556,29.9
4.53333333333333,11.7817109300999,25.2184139409941,0.000307697383269645,-4.24617124858005e-07,5,13.9133680555556,29.9
4.56666666666667,11.7817109300999,25.2184139409941,0.000290890219675383,-1.68071635942619e-05,5,13.9133680555556,29.9
4.6,11.7817109300999,25.2184139409941,0.000260919581207236,-2.99706384681479e-05,5,13.9133680555556,29.9
4.63333333333333,11.7817109300999,25.2184139409941,0.00022126103952679,-3.96585416804458e-05,5,13.9133680555556,29.9
4.66666666666667,11.7817109300999,25.2184139409941,0.00017542061612818,-4.584042339861e-05,5,13.9133680555556,29.9
4.7,11.7817109300999,25.2184139409941,0.000126739379002934,-4.86812371252455e-05,5,13.9133680555556,29.9
4.73333333333333,11.7817109300999,25.2184139409941,2.03773337915078e-05,-0.000106362045211426,5,13.9133680555556,29.9
4.76666666666667,11.7817100005909,25.2186214696449,0.00773946250893947,0.00771908517514796,5,13.9133680555556,29.9
4.8,11.7817078506068,25.2191014709801,0.0210561476538814,0.0133166851449419,5,13.9133680555556,29.9
4.83333333333333,11.7817026921944,25.2202532980389,0.0480272532392905,0.0269711055854091,4,13.9133680555556,29.9
4.86666666666667,11.7816928897402,25.2224427442187,0.0832809868842757,0.0352537336449852,4,13.9133680555556,29.9
4.9,11.7816780060405,25.2257691498835,0.116220289467824,0.032939302583548,4,13.9133680555556,29.9
4.93333333333333,11.7816584118151,25.2301532311496,0.146729980013342,0.0305096905455187,4,13.9133680555556,29.9
4.96666666666667,11.7816343729277,25.235541277375,0.17645324163641,0.029723261623068,4,13.9133680555556,29.9
5,11.7816059184317,25.2419349338055,0.207062377925981,0.030609136289571,4,13.9133680555556,29.9
5.03333333333333,11.7815730965509,25.2493344017468,0.236798418783083,0.0297360408571014,4,13.9133680555556,29.9
5.06666666666667,11.7815361001931,25.2577106777755,0.26567959697121,0.0288811781881276,4,13.9133680555556,29.9
5.1,11.7814947418638,25.2671228935315,0.298958919404242,0.0332793224330314,4,13.9133680555556,29.9
5.13333333333333,11.7814481970101,25.2777760077696,0.340127623821764,0.0411687044175224,4,13.9133680555556,29.9
5.16666666666667,11.7813957883125,25.2898466281927,0.383998343243247,0.043870719421483,4,13.9133680555556,29.9
5.2,11.7813375128493,25.3033661015862,0.427049333857703,0.0430509906144554,4,13.9133680555556,29.9
5.23333333333333,11.781273656496,25.3183066421485,0.469255452818433,0.0422061189607307,4,13.9133680555556,29.9
5.26666666666667,11.7812045304133,25.3346396039098,0.510585557689522,0.0413301048710886,4,13.9133680555556,29.9
5.3,11.7811304684007,25.3523351363754,0.551003527569569,0.0404179698800475,4,13.9133680555556,29.9
5.33333333333333,11.7810518201789,25.371362435666,0.590488475068433,0.0394849474988637,4,13.9133680555556,29.9
5.36666666666667,11.7809689424541,25.3916902211708,0.629031865743469,0.038543390675036,4,13.9133680555556,29.9
5.4,11.7808821896328,25.4132870867859,0.666634078221947,0.0376022124784781,4,13.9133680555556,29.9
5.43333333333333,11.7807919043803,25.436121766799,0.703304851994062,0.036670773772115,4,13.9133680555556,29.9
5.46666666666667,11.7806984058656,25.4601639002841,0.739092651543652,0.0357877995495893,4,13.9133680555556,29.9
5.5,11.7806019772342,25.4853850604513,0.774055750155578,0.0349630986119266,4,13.9133680555556,29.9
5.53333333333333,11.7805028593864,25.5117585695168,0.808241276810391,0.0341855266548126,4,13.9133680555556,29.9
5.56666666666667,11.7804012466921,25.5392591765727,0.841688057494675,0.0334467806842844,4,13.9133680555556,29.9
5.6,11.7802972840502,25.5678628170819,0.874428701009792,0.0327406435151172,4,13.9133680555556,29.9
5.63333333333333,11.7801910656989,25.5975464321843,0.906491132250235,0.0320624312404426,4,13.9133680555556,29.9
5.66666666666667,11.7800826367781,25.6282876673461,0.937882641644539,0.0313915093943045,4,13.9133680555556,29.9
5.7,11.7799720012086,25.6600636518167,0.968570633824241,0.0306879921797018,4,13.9133680555556,29.9
5.73333333333333,11.7798591286374,25.69285049508,0.998531512601191,0.0299608787769498,4,13.9133680555556,29.9
5.76666666666667,11.779743959159,25.7266237669843,1.0277551357097,0.0292236231085063,4,13.9133680555556,29.9
5.8,11.7796264104842,25.7613588343086,1.05623943526589,0.0284842995561974,4,13.9133680555556,29.9
5.83333333333333,11.7795063868034,25.7970311341062,1.08399046899256,0.0277510337266669,4,13.9133680555556,29.9
5.86666666666667,11.7793837291083,25.8336164077099,1.11102010252302,0.0270296335304594,4,13.9133680555556,29.9
5.9,11.7792580512332,25.8710908614083,1.13734435545832,0.0263242529352996,4,13.9133680555556,29.9
5.93333333333333,11.7791288751777,25.9094314108931,1.16299339692873,0.0256490414704058,4,13.9133680555556,29.9
5.96666666666667,11.7789954458815,25.9486163108931,1.18801302950566,0.0250196325769318,4,13.9133680555556,29.9
6,11.7788567028331,25.9886252571339,1.21244291871738,0.0244298892117187,4,13.9133680555556,29.9
6.03333333333333,11.7787113064812,26.0294391580377,1.23631649736783,0.023873578650458,4,13.9133680555556,29.9
6.06666666666667,11.7785577892927,26.0710399525975,1.25966241000228,0.0233459126344469,4,13.9133680555556,29.9
6.1,11.7783948685672,26.1134104704377,1.28250557725819,0.0228431672559037,4,13.9133680555556,29.9
6.13333333333333,11.7782213504465,26.15653432115,1.30486799487439,0.0223624176162083,4,13.9133680555556,29.9
