Time,x_ego,y_ego,velocity,acceleration,action,x_ped,y_ped
0,11.8,8.9,7,0,1,15.5,29.9
0.0333333333333333,11.8,9.13327037939431,6.99615577953002,-0.00384422046998356,1,15.4972222222222,29.9
0.0666666666666667,11.8,9.36640659881126,6.99196947109348,-0.00418630843653833,1,15.4888888888889,29.9
0.1,11.8,9.59940075527911,6.98769498718995,-0.00427448390352669,1,15.475,29.9
0.133333333333333,11.8,9.83225378528415,6.9834976545359,-0.00419733265404787,1,15.4555555555556,29.9
0.166666666666667,11.8,10.0649678802301,6.97935585456763,-0.00414179996826913,1,15.4305555555556,29.9
0.2,11.8,10.2975446186632,6.97525409491249,-0.00410175965514537,1,15.4,29.9
0.233333333333333,11.8,10.5299851399444,6.97118127319767,-0.00407282171482137,1,15.3666666666667,29.9
0.266666666666667,11.8,10.7622902687052,6.96712943294736,-0.00405184025031069,1,15.3333333333333,29.9
0.3,11.8,10.9944606040335,6.96309287213007,-0.00403656081728965,1,15.3,29.9
0.333333333333333,11.8,11.2264965833863,6.95906750439986,-0.00402536773020401,1,15.2666666666667,29.9
0.366666666666667,11.8,11.4583985283897,6.95505040137947,-0.00401710302039238,1,15.2333333333333,29.9
0.4,11.8,11.6901666776599,6.95103946463339,-0.00401093674607722,1,15.2,29.9
0.433333333333333,11.8,11.9218012103233,6.94703319054231,-0.00400627409108711,1,15.1666666666667,29.9
0.466666666666667,11.8,12.1533022628712,6.94303050173604,-0.00400268880626342,1,15.1333333333333,29.9
0.5,11.8,12.3846699412377,6.93903062623031,-0.00399987550573222,1,15.1,29.9
0.533333333333333,11.8,12.6159043294559,6.93503301077307,-0.00399761545723631,1,15.0666666666667,29.9
0.566666666666667,11.8,12.8470054958598,6.93103725873891,-0.00399575203416092,1,15.0333333333333,29.9
0.6,11.8,13.0779734975296,6.92704308564579,-0.003994173093127,1,15,29.9
0.633333333333333,11.8,13.3088083834769,6.92305028732138,-0.00399279832440236,1,14.9666666666667,29.9
0.666666666666667,11.7999910151404,13.539481131306,6.91731485664555,-0.00573543067583682,1,14.9333333333333,29.9
0.7,11.799934750191,13.7698471825866,6.90464914186354,-0.012665714782008,1,14.9,29.9
0.733333333333333,11.7998006791841,13.9996758860242,6.88507614290584,-0.0195729989577016,3,14.8666666666667,29.9
0.766666666666667,11.799572991762,14.2287943789351,6.86204104688129,-0.0230350960245502,3,14.8333333333333,29.9
0.8,11.7992462905281,14.4571449862896,6.8390102336803,-0.0230308132009887,3,14.8,29.9
0.833333333333333,11.7988217132258,14.6846991050621,6.81426149940039,-0.0247487342799078,3,14.7666666666667,29.9
0.866666666666667,11.7983039169134,14.9114568451947,6.79123922005456,-0.0230222793458363,3,14.7333333333333,29.9
0.9,11.7976991533774,15.1373605565828,6.76303304595392,-0.028206174100637,3,14.7,29.9
0.933333333333333,11.797014329787,15.3621509692286,6.72445565743695,-0.0385773885169645,3,14.6666666666667,29.9
0.966666666666667,11.796256366596,15.5855688623566,6.68069675333383,-0.0437589041031234,3,14.6333333333333,29.9
1,11.7954317987978,15.8074989371329,6.63520162855233,-0.0454951247815023,3,14.6,29.9
1.03333333333333,11.7945469415762,16.0277972236591,6.58280460923648,-0.0523970193158521,3,14.5666666666667,29.9
1.06666666666667,11.7936080845968,16.2461759143345,6.52004089842694,-0.0627637108095316,3,14.5333333333333,29.9
1.1,11.7926214287318,16.462231718315,6.44344618466425,-0.0765947137626899,3,14.5,29.9
1.13333333333333,11.791593050327,16.6754458771279,6.3495566938626,-0.0938894908016534,3,14.4666666666667,29.9
1.16666666666667,11.790528255658,16.8853865503508,6.24705114171067,-0.102505552151928,3,14.4333333333333,29.9
1.2,11.7894313120706,17.091766206086,6.13590958135931,-0.111141560351364,3,14.4,29.9
1.23333333333333,11.7883054585134,17.2944121789258,6.02304398794902,-0.112865593410286,3,14.3666666666667,29.9
1.26666666666667,11.7871531808664,17.4932096085384,5.90501095236521,-0.118033035583817,3,14.3333333333333,29.9
1.3,11.7859764548119,17.6880727315514,5.7869995908203,-0.118011361544908,3,14.3,29.9
1.33333333333333,11.7847771101174,17.8789158046573,5.66382204325872,-0.123177547561578,3,14.2666666666667,29.9
1.36666666666667,11.7835570408382,18.0656531065771,5.54066714399081,-0.123154899267907,3,14.2333333333333,29.9
1.4,11.7823180109308,18.2482854010108,5.41753498309542,-0.12313216089539,3,14.2,29.9
1.43333333333333,11.7810624173197,18.4267560537891,5.29098133693256,-0.126553646162861,3,14.1666666666667,29.9
1.46666666666667,11.7797927537491,18.6010658463894,5.1678950179761,-0.12308631895646,3,14.1333333333333,29.9
1.5,11.7785115488926,18.7712729638544,5.04483144655135,-0.123063571424755,3,14.1,29.9
1.53333333333333,11.7772221684738,18.9373207780295,4.91834633437151,-0.126485112179839,3,14.0666666666667,29.9
1.56666666666667,11.7759280909325,19.0991526648738,4.79188423944519,-0.126462094926318,3,14.0333333333333,29.9
1.6,11.7746326313752,19.2567403400699,4.66370124403106,-0.128182995414134,3,14,29.9
1.63333333333333,11.7733388086312,19.4100845842981,4.53728531409833,-0.126415929932722,3,13.9666666666667,29.9
1.66666666666667,11.7720496554801,19.5591564786585,4.40733965044717,-0.129945663651162,3,13.9333333333333,29.9
1.7,11.7707684117132,19.7038660407331,4.27556012003392,-0.131779530413255,3,13.9,29.9
1.73333333333333,11.769497789802,19.8441816471249,4.14371397620655,-0.131846143827371,3,13.8666666666667,29.9
1.76666666666667,11.7682399869249,19.9801303566625,4.01355548435044,-0.13015849185611,3,13.8333333333333,29.9
1.8,11.7669971127317,20.1117401365659,3.88338521723448,-0.130170267115952,3,13.8,29.9
1.83333333333333,11.7657714331613,20.2390108992718,3.75321942004581,-0.130165797188673,3,13.7666666666667,29.9
1.86666666666667,11.7645656364277,20.3618852527135,3.61960361826525,-0.133615801780564,3,13.7333333333333,29.9
1.9,11.7633819834636,20.4803639098978,3.48947860657165,-0.130125011693595,3,13.7,29.9
1.93333333333333,11.7622222842668,20.5945055852759,3.35938395176439,-0.130094654807266,3,13.6666666666667,29.9
1.96666666666667,11.7610887383534,20.7043113866533,3.22932376033626,-0.130060191428127,3,13.6333333333333,29.9
2,11.7599834625889,20.8097825353334,3.09930092981857,-0.130022830517686,3,13.6,29.9
2.03333333333333,11.7589084630966,20.9109203311375,2.96931748051825,-0.129983449300322,3,13.5666666666667,29.9
2.06666666666667,11.7578656184807,21.0077261273368,2.83937479128546,-0.129942689232792,3,13.5333333333333,29.9
2.1,11.756856677763,21.100201312751,2.70947376927384,-0.129901022011622,3,13.5,29.9
2.13333333333333,11.7558837741122,21.1882895323984,2.57614890495339,-0.133324864320445,3,13.4666666666667,29.9
2.16666666666667,11.7549487126013,21.2719635180876,2.4446109277918,-0.131537977161587,3,13.4333333333333,29.9
2.2,11.7540524815418,21.3512824829972,2.31483816321491,-0.129772764576894,3,13.4,29.9
2.23333333333333,11.7531962326731,21.4262767274216,2.18514336277252,-0.12969480044239,3,13.3666666666667,29.9
2.26666666666667,11.7523811868971,21.4969580643321,2.05628613863453,-0.128857224137995,3,13.3333333333333,29.9
2.3,11.7516083875993,21.563348046385,1.92778587563761,-0.128500262996914,3,13.3,29.9
2.33333333333333,11.7508787946664,21.6254673371163,1.80006324692344,-0.127722628714176,3,13.2666666666667,29.9
2.36666666666667,11.7501934779937,21.6833149950778,1.6714683897293,-0.128594857194138,3,13.2333333333333,29.9
2.4,11.7495534166475,21.736890302804,1.54370731212596,-0.127761077603338,3,13.2,29.9
2.43333333333333,11.7489592359886,21.7862210133881,1.41677209562743,-0.126935216498529,3,13.1666666666667,29.9
2.46666666666667,11.7484114845104,21.8313338202621,1.29061646703569,-0.126155628591743,3,13.1333333333333,29.9
2.5,11.7479100765846,21.8723124911846,1.16869900216275,-0.121917464872933,3,13.1,29.9
2.53333333333333,11.7474545697545,21.9092684381732,1.04923793767454,-0.119461064488215,3,13.0666666666667,29.9
2.56666666666667,11.7470447046304,21.9422845691331,0.932317336963178,-0.116920600711361,3,13.0333333333333,29.9
2.6,11.7466800988054,21.9714476174584,0.818043874318864,-0.114273462644314,3,13,29.9
2.63333333333333,11.7463605690207,21.9968159961453,0.704597221059183,-0.113446653259681,3,12.9666666666667,29.9
2.66666666666667,11.7460853303388,22.0185019339377,0.59707089571506,-0.107526325344123,3,12.9333333333333,29.9
2.7,11.7458532637697,22.0366446882111,0.492000013654837,-0.105070882060223,3,12.9,29.9
2.73333333333333,11.7456637488479,22.0513266642309,0.389411545548878,-0.102588468105959,3,12.8666666666667,29.9
2.76666666666667,11.7455161142539,22.0626299576291,0.289253107928672,-0.100158437620206,3,12.8333333333333,29.9
2.8,11.7454096700642,22.0706339350932,0.191434139318281,-0.0978189686103905,3,12.8,29.9
2.83333333333333,11.7453434182961,22.0754450756798,0.0977192247907184,-0.0937149145275628,3,12.7666666666667,29.9
2.86666666666667,11.7453160012681,22.0772029533297,0.00865082240998569,-0.0890684023807327,3,12.7333333333333,29.9
2.9,11.7453228825547,22.0763634967055,0.036371080582543,0.0277202581725573,4,12.7,29.9
2.93333333333333,11.7453414613498,22.0751548068275,0.00314212745627348,-0.0332289531262695,3,12.6666666666667,29.9
2.96666666666667,11.7453414613498,22.0751548068275,0.00379211389197292,0.000649986435699438,5,12.6333333333333,29.9
3,11.7453414613498,22.0751548068275,0.00468748682602816,0.000895372934055237,5,12.6,29.9
3.03333333333333,11.7453414613498,22.0751548068275,0.0057388313617708,0.00105134453574264,5,12.5666666666667,29.9
3.06666666666667,11.7453414613498,22.0751548068275,0.00682989130587871,0.00109105994410791,5,12.5333333333333,29.9
3.1,11.7453414613498,22.0751548068275,0.00783533350212864,0.00100544219624994,5,12.5,29.9
3.13333333333333,11.7453414613498,22.0751548068275,0.00863656696830228,0.000801233466173633,5,12.4666666666667,29.9
3.16666666666667,11.7453414613498,22.0751548068275,0.00913454871727917,0.000497981748976892,5,12.4333333333333,29.9
3.2,11.7453414613498,22.0751548068275,0.00925893291537027,0.000124384198091099,5,12.4,29.9
3.23333333333333,11.7453414613498,22.0751548068275,0.00897332341796249,-0.000285609497407783,5,12.3666666666667,29.9
3.26666666666667,11.7453414613498,22.0751548068275,0.00827674513379113,-0.000696578284171355,5,12.3333333333333,29.9
3.3,11.7453414613498,22.0751548068275,0.00720173847669651,-0.00107500665709462,5,12.3,29.9
3.33333333333333,11.7453414613498,22.0751548068275,0.00580969269020391,-0.0013920457864926,5,12.2666666666667,29.9
3.36666666666667,11.7453414613498,22.0751548068275,0.00418416478228094,-0.00162552790792296,5,12.2333333333333,29.9
3.4,11.7453414613498,22.0751548068275,0.00242298428692021,-0.00176118049536074,5,12.2,29.9
3.43333333333333,11.7453414613498,22.0751548068275,0.000629928300617041,-0.00179305598630317,5,12.1666666666667,29.9
3.46666666666667,11.7453414613498,22.0751548068275,0.00109332184709569,0.000463393546478651,5,12.1333333333333,29.9
3.5,11.7453414613498,22.0751548068275,0.00265434715508312,0.00156102530798743,5,12.1,29.9
3.53333333333333,11.7453414613498,22.0751548068275,0.00397582989896363,0.00132148274388051,5,12.0666666666667,29.9
3.56666666666667,11.7453414613498,22.0751548068275,0.00499977172131252,0.00102394182234889,5,12.0333333333333,29.9
3.6,11.7453414613498,22.0751548068275,0.0056899550884574,0.000690183367144876,5,12,29.9
3.63333333333333,11.7453414613498,22.0751548068275,0.0060326582902566,0.000342703201799203,5,11.9666666666667,29.9
3.66666666666667,11.7453414613498,22.0751548068275,0.00603575973926525,3.10144900865245e-06,5,11.9333333333333,29.9
3.7,11.7453414613498,22.0751548068275,0.00572646644479242,-0.000309293294472835,5,11.9,29.9
3.73333333333333,11.7453414613498,22.0751548068275,0.00514797087291143,-0.00057849557188099,5,11.8666666666667,29.9
3.76666666666667,11.7453414613498,22.0751548068275,0.0043553792107208,-0.000792591662190628,5,11.8333333333333,29.9
3.8,11.7453414613498,22.0751548068275,0.00341126382816855,-0.000944115382552248,5,11.8,29.9
3.83333333333333,11.7453414613498,22.0751548068275,0.0023811767716732,-0.00103008705649536,5,11.7666666666667,29.9
3.86666666666667,11.7453414613498,22.0751548068275,0.00132942403575089,-0.00105175273592231,5,11.7333333333333,29.9
3.9,11.7453414613498,22.0751548068275,0.000315347545244925,-0.00101407649050596,5,11.7,29.9
3.93333333333333,11.7453414613498,22.0751548068275,0.00060970104297732,0.000294353497732395,5,11.6666666666667,29.9
3.96666666666667,11.7453414613498,22.0751548068275,0.00140457785031037,0.000794876807333051,5,11.6333333333333,29.9
4,11.7453414613498,22.0751548068275,0.00203970527623667,0.000635127425926294,5,11.6,29.9
4.03333333333333,11.7453414613498,22.0751548068275,0.00249758266362416,0.000457877387387492,5,11.5666666666667,29.9
4.06666666666667,11.7453414613498,22.0751548068275,0.00277251334282664,0.000274930679202481,5,11.5333333333333,29.9
4.1,11.7453414613498,22.0751548068275,0.00286965446453688,9.71411217102433e-05,5,11.5,29.9
4.13333333333333,11.7453414613498,22.0751548068275,0.0028035260514782,-6.61284130586835e-05,5,11.4666666666667,29.9
4.16666666666667,11.7453414613498,22.0751548068275,0.00259613319094927,-0.000207392860528928,5,11.4333333333333,29.9
4.2,11.7453414613498,22.0751548068275,0.00227486076989117,-0.000321272421058106,5,11.4,29.9
4.23333333333333,11.7453414613498,22.0751548068275,0.00187029484863999,-0.000404565921251174,5,11.3666666666667,29.9
4.26666666666667,11.7453414613498,22.0751548068275,0.00141411043680924,-0.000456184411830748,5,11.3333333333333,29.9
4.3,11.7453414613498,22.0751548068275,0.000937144174701196,-0.000476966262108047,5,11.3,29.9
4.33333333333333,11.7453414613498,22.0751548068275,0.000467744494279745,-0.000469399680421452,5,11.2666666666667,29.9
4.36666666666667,11.7453414613498,22.0751548068275,3.04634836020228e-05,-0.000437281010677722,5,11.2333333333333,29.9
4.4,11.7453414613498,22.0751548068275,0.000354873996024782,0.000324410512422759,5,11.2,29.9
4.43333333333333,11.7453414613498,22.0751548068275,0.000673715558545504,0.000318841562520721,5,11.1666666666667,29.9
4.46666666666667,11.7453414613498,22.0751548068275,0.000916956699093787,0.000243241140548283,5,11.1333333333333,29.9
4.5,11.7453414613498,22.0751548068275,0.00108078223124162,0.000163825532147836,5,11.1,29.9
4.53333333333333,11.7453414613498,22.0751548068275,0.00116622492810333,8.54426968617094e-05,5,11.0666666666667,29.9
4.56666666666667,11.7453414613498,22.0751548068275,0.00117850275467489,1.22778265715547e-05,5,11.0333333333333,29.9
4.6,11.7453414613498,22.0751548068275,0.00112620126519763,-5.23014894772559e-05,5,11,29.9
4.63333333333333,11.7453414613498,22.0751548068275,0.00102036825525593,-0.000105833009941696,5,10.9666666666667,29.9
4.66666666666667,11.7453414613498,22.0751548068275,0.000873584199646886,-0.000146784055609049,5,10.9333333333333,29.9
4.7,11.7453414613498,22.0751548068275,0.000699065137406362,-0.000174519062240524,5,10.9,29.9
4.73333333333333,11.7453414613498,22.0751548068275,0.00050984534541566,-0.000189219791990701,5,10.8666666666667,29.9
4.76666666666667,11.7453414613498,22.0751548068275,0.000318076262915025,-0.000191769082500635,5,10.8333333333333,29.9
4.8,11.7453414613498,22.0751548068275,0.000134466553739826,-0.000183609709175199,5,10.8,29.9
4.83333333333333,11.7453414613498,22.0751548068275,3.21232932911288e-05,-0.000102343260448698,5,10.7666666666667,29.9
4.86666666666667,11.7453414613498,22.0751548068275,0.000174929151329088,0.000142805858037959,5,10.7333333333333,29.9
4.9,11.7453414613498,22.0751548068275,0.000289380988300516,0.000114451836971428,5,10.7,29.9
4.93333333333333,11.7453414613498,22.0751548068275,0.000373064663283515,8.36836749829988e-05,5,10.6666666666667,29.9
4.96666666666667,11.7453414613498,22.0751548068275,0.000425568161810451,5.25034985269359e-05,5,10.6333333333333,29.9
5,11.7453414613498,22.0751548068275,0.000448236518910766,2.26683571003155e-05,5,10.6,29.9
5.03333333333333,11.7453414613498,22.0751548068275,0.000443861614923068,-4.37490398769776e-06,5,10.5666666666667,29.9
5.06666666666667,11.7453414613498,22.0751548068275,0.000416333183319335,-2.75284316037337e-05,5,10.5333333333333,29.9
5.1,11.7453414613498,22.0751548068275,0.000370275980844015,-4.60572024753196e-05,5,10.5,29.9
5.13333333333333,11.7453414613498,22.0751548068275,0.000310695434454392,-5.95805463896227e-05,5,10.4666666666667,29.9
5.16666666666667,11.7453414613498,22.0751548068275,0.000242650524721162,-6.804490973323e-05,5,10.4333333333333,29.9
5.2,11.7453414613498,22.0751548068275,0.000170968526969136,-7.16819977520263e-05,5,10.4,29.9
5.23333333333333,11.7453414613498,22.0751548068275,0.000100011831591834,-7.09566953773018e-05,5,10.3666666666667,29.9
5.26666666666667,11.7453414613498,22.0751548068275,3.35026952458109e-05,-6.65091363460234e-05,5,10.3333333333333,29.9
5.3,11.7453414613498,22.0751548068275,2.55923167098829e-05,-7.91037853592804e-06,5,10.3,29.9
5.33333333333333,11.7453414613498,22.0751548068275,7.51200525375611e-05,4.95277358276783e-05,5,10.2666666666667,29.9
5.36666666666667,11.7453414613498,22.0751548068275,0.000113745517820848,3.86254652832869e-05,5,10.2333333333333,29.9
5.4,11.7453414613498,22.0751548068275,0.000140910797147263,2.71652793264146e-05,5,10.2,29.9
5.43333333333333,11.7453414613498,22.0751548068275,0.000156756877736571,1.58460805893079e-05,5,10.1666666666667,29.9
5.46666666666667,11.7453414613498,22.0751548068275,0.000162017948683278,5.26107094670725e-06,5,10.1333333333333,29.9
5.5,11.7453414613498,22.0751548068275,0.000157897935817099,-4.12001286617908e-06,5,10.1,29.9
5.53333333333333,11.7453414613498,22.0751548068275,0.000145938639837033,-1.19592959800657e-05,5,10.0666666666667,29.9
5.56666666666667,11.7453414613498,22.0751548068275,0.00012788798006913,-1.80506597679034e-05,5,10.0333333333333,29.9
5.6,11.7453414613498,22.0751548068275,0.000105575625487139,-2.23123545819903e-05,5,10,29.9
5.63333333333333,11.7453414613498,22.0751548068275,8.08018393532492e-05,-2.47737861338902e-05,5,9.96666666666667,29.9
5.66666666666667,11.7453414613498,22.0751548068275,5.52437906291387e-05,-2.55580487241105e-05,5,9.93333333333333,29.9
5.7,11.7453414613498,22.0751548068275,3.03820005155403e-05,-2.48617901135983e-05,5,9.9,29.9
5.73333333333333,11.7453414613498,22.0751548068275,7.44808752470767e-06,-2.29339129908327e-05,5,9.86666666666667,29.9
5.76666666666667,11.7453414613498,22.0751548068275,1.26063771765189e-05,5.15828965181122e-06,5,9.83333333333334,29.9
5.8,11.7453414613498,22.0751548068275,2.91212368812017e-05,1.65148597046828e-05,5,9.8,29.9
5.83333333333333,11.7453414613498,22.0751548068275,4.17215747255651e-05,1.26003378443633e-05,5,9.76666666666667,29.9
5.86666666666667,11.7453414613498,22.0751548068275,5.02968794297233e-05,8.57530470415821e-06,5,9.73333333333333,29.9
5.9,11.7453414613498,22.0751548068275,5.49688243834636e-05,4.67194495374037e-06,5,9.7,29.9
5.93333333333333,11.7453414613498,22.0751548068275,5.60510842681038e-05,1.08225988464013e-06,5,9.66666666666667,29.9
5.96666666666667,11.7453414613498,22.0751548068275,5.40045518289064e-05,-2.04653243919732e-06,5,9.63333333333333,29.9
6,11.7453414613498,22.0751548068275,4.93910779900001e-05,-4.61347383890638e-06,5,9.6,29.9
6.03333333333333,11.7453414613498,22.0751548068275,4.28284809985693e-05,-6.56259699143074e-06,5,9.56666666666667,29.9
6.06666666666667,11.7453414613498,22.0751548068275,3.49490963059097e-05,-7.87938469265968e-06,5,9.53333333333333,29.9
6.1,11.7453414613498,22.0751548068275,2.63636092555878e-05,-8.58548705032181e-06,5,9.5,29.9
6.13333333333333,11.7453414613498,22.0751548068275,1.76313651832485e-05,-8.73224407233931e-06,5,9.46666666666667,29.9
6.16666666666667,11.7453414613498,22.0751548068275,9.23781939242641e-06,-8.39354579082212e-06,5,9.43333333333333,29.9
6.2,11.7453414613498,22.0751548068275,1.57929996724827e-06,-7.65851942517815e-06,5,9.4,29.9
6.23333333333333,11.7453414613498,22.0751548068275,5.04516967215622e-06,3.46586970490795e-06,5,9.36666666666667,29.9
6.26666666666667,11.7453414613498,22.0751548068275,1.04355900475656e-05,5.39042037540941e-06,5,9.33333333333333,29.9
6.3,11.7453414613498,22.0751548068275,1.44871115601541e-05,4.05152151258846e-06,5,9.3,29.9
