Time,x_ego,y_ego,velocity,acceleration,action,x_ped,y_ped
0,11.8,8.9,5,0,1,15.5,29.9
0.0333333333333333,11.8,9.06660768884189,4.99642261439338,-0.0035773856066168,1,15.5,29.9
0.0666666666666667,11.8,9.23309265311448,4.99264756783477,-0.00377504655861216,1,15.5,29.9
0.1,11.8,9.39944929692399,4.98873130122091,-0.00391626661385835,1,15.5,29.9
0.133333333333333,11.8,9.56567362451385,4.98471426828108,-0.00401703293983147,1,15.5,29.9
0.166666666666667,11.8,9.7317627870126,4.98062546389497,-0.00408880438611448,1,15.5,29.9
0.2,11.8,9.89771475756689,4.97648566969706,-0.00413979419790333,1,15.5,29.9
0.233333333333333,11.8,10.063528098494,4.97230978036584,-0.00417588933122204,1,15.5,29.9
0.266666666666667,11.8,10.2292017943893,4.96810847105553,-0.00420130931030815,1,15.5,29.9
0.3,11.8,10.3947351325064,4.96388939262275,-0.00421907843277847,1,15.5,29.9
0.333333333333333,11.8,10.5601276170202,4.95965802839236,-0.00423136423039949,1,15.5,29.9
0.366666666666667,11.8,10.7253789075748,4.95541830829244,-0.00423972009991047,1,15.5,29.9
0.4,11.8,10.8904887752388,4.95117304903021,-0.00424525926223307,1,15.5,29.9
0.433333333333333,11.8,11.0554570709351,4.94692426953351,-0.00424877949670321,1,15.5,29.9
0.466666666666667,11.8,11.2202837028143,4.94267341695966,-0.00425085257384605,1,15.5,29.9
0.5,11.8,11.3849686200364,4.93842152859998,-0.00425188835968093,1,15.5,29.9
0.533333333333333,11.8,11.5495118011469,4.93416934785826,-0.00425218074171951,1,15.5,29.9
0.566666666666667,11.8,11.7139132457448,4.92991740734792,-0.00425194051033717,1,15.5,29.9
0.6,11.8,11.8781729685112,4.9256660884612,-0.00425131888672592,1,15.5,29.9
0.633333333333333,11.8,12.0422909949291,4.92141566410698,-0.00425042435422096,1,15.5,29.9
0.666666666666667,11.8,12.2062673582159,4.91716632940257,-0.00424933470440969,1,15.5,29.9
0.7,11.8,12.3701020971241,4.91291822373206,-0.00424810567050482,1,15.5,29.9
0.733333333333333,11.8,12.5337952543655,4.9086714466029,-0.0042467771291621,1,15.5,29.9
0.766666666666667,11.8,12.697346875482,4.90442606903452,-0.00424537756837751,1,15.5,29.9
0.8,11.8,12.8607570080352,4.90018214171998,-0.00424392731454049,1,15.5,29.9
0.833333333333333,11.7999929058073,13.0240257010101,4.89593973805003,-0.00424240366995132,1,15.5,29.9
0.866666666666667,11.799948519215,13.1871530037475,4.89169918106888,-0.00424055698115477,1,15.5,29.9
0.9,11.799845417448,13.3501389626805,4.88746074180653,-0.00423843926234291,1,15.5,29.9
0.933333333333333,11.799676091412,13.5129836185306,4.88322425123935,-0.00423649056718922,1,15.5,29.9
0.966666666666667,11.7994443823665,13.6756870080128,4.87898930699097,-0.00423494424837134,1,15.5,29.9
1,11.7991580894288,13.8382491677622,4.87475564515851,-0.00423366183246365,1,15.5,29.9
1.03333333333333,11.7988259384685,14.0006701376844,4.87052314679823,-0.00423249836028194,1,15.5,29.9
1.06666666666667,11.7984564514075,14.1629499628246,4.86629181705917,-0.00423132973905371,1,15.5,29.9
1.1,11.7980573021255,14.3250886935717,4.86206173299834,-0.00423008406083536,1,15.5,29.9
1.13333333333333,11.7976356200981,14.4870863853257,4.85783291592106,-0.0042288170772764,1,15.5,29.9
1.16666666666667,11.7971993512475,14.6489430991978,4.85360543274348,-0.00422748317758348,1,15.5,29.9
1.2,11.7967554028646,14.8106588991097,4.84937936352978,-0.0042260692137015,1,15.5,29.9
1.23333333333333,11.7963104160023,14.972233851314,4.84515480025131,-0.00422456327846721,1,15.5,29.9
1.26666666666667,11.7958686576034,15.133668020016,4.84093186980025,-0.00422293045106059,1,15.5,29.9
1.3,11.7954316827896,15.2949614650843,4.83671063867987,-0.00422123112037731,1,15.5,29.9
1.33333333333333,11.7949987993446,15.4561142416283,4.83249112672361,-0.00421951195626491,1,15.5,29.9
1.36666666666667,11.7945676281034,15.6171264004287,4.82827332539817,-0.00421780132543503,1,15.5,29.9
1.4,11.7941347050446,15.7779979888726,4.82405721367252,-0.00421611172564784,1,15.5,29.9
1.43333333333333,11.7936966706045,15.9387290533109,4.81984273130654,-0.0042144823659882,1,15.5,29.9
1.46666666666667,11.7932522536346,16.0993196434657,4.8156298414618,-0.00421288984473467,1,15.5,29.9
1.5,11.7928003093492,16.2597698090155,4.81141854908313,-0.00421129237867301,1,15.5,29.9
1.53333333333333,11.7923400622762,16.4200796002118,4.80720882016911,-0.00420972891401661,1,15.4777777777778,29.9
1.56666666666667,11.7918727878232,16.5802490718611,4.80300063456701,-0.00420818560210545,1,15.4111111111111,29.9
1.6,11.7913997526865,16.7402782790769,4.79879400729183,-0.00420662727517751,1,15.3,29.9
1.63333333333333,11.7909217143234,16.9001672759854,4.79458894668429,-0.00420506060754278,1,15.1698412698413,29.9
1.66666666666667,11.7904390463558,17.0599161158203,4.79038545608207,-0.00420349060221703,1,15.0460317460317,29.9
1.7,11.7899518277793,17.2195248510087,4.78618353587211,-0.00420192020996257,1,14.9285714285714,29.9
1.73333333333333,11.7894598969628,17.3789935332302,4.78198318511574,-0.00420035075636971,1,14.8174603174603,29.9
1.76666666666667,11.7889628854901,17.5383222134642,4.77778440251405,-0.00419878260168538,1,14.7126984126984,29.9
1.8,11.7884602509915,17.6975109420586,4.77358718678991,-0.00419721572414655,1,14.6142857142857,29.9
1.83333333333333,11.7879513237506,17.8565597688495,4.76939153667777,-0.00419565011214029,1,14.5222222222222,29.9
1.86666666666667,11.7874353725174,18.015468743342,4.7651974507193,-0.00419408595846082,1,14.4365079365079,29.9
1.9,11.7869116846917,18.174237914944,4.76100492702265,-0.00419252369665202,1,14.3571428571429,29.9
1.93333333333333,11.7863796483452,18.3328673332169,4.75681396309678,-0.00419096392587193,1,14.284126984127,29.9
1.96666666666667,11.7858388205297,18.4913570481028,4.75262455583632,-0.00418940726046113,1,14.2174603174603,29.9
2,11.7852889683491,18.6497071100825,4.74843670169696,-0.00418785413935829,1,14.1571428571429,29.9
2.03333333333333,11.7847300752396,18.8079175702374,4.74425039705014,-0.00418630464681691,1,14.1031746031746,29.9
2.06666666666667,11.7841623127469,18.9659884802041,4.74006563863887,-0.00418475841127375,1,14.0555555555556,29.9
2.1,11.7835859854933,19.1239198920372,4.73588242400262,-0.00418321463625038,1,14.0142857142857,29.9
2.13333333333333,11.7830003170786,19.2817118543708,4.73170080628249,-0.00418161772012571,1,13.9793650793651,29.9
2.16666666666667,11.7823994471437,19.4393643991698,4.72752088225437,-0.00417992402812217,1,13.9507936507936,29.9
2.2,11.7817730221776,19.5968775421363,4.72334276197624,-0.00417812027812836,1,13.9285714285714,29.9
2.23333333333333,11.7811080088016,19.7542512867893,4.71916659519302,-0.00417616678321941,1,13.9126984126984,29.9
2.26666666666667,11.7803908302198,19.9114856294008,4.7149925016741,-0.00417409351892228,1,13.9031746031746,29.9
2.3,11.7796111322708,20.0685805701305,4.71082042697358,-0.00417207470052627,1,13.9,29.9
2.33333333333333,11.7787641988039,20.2255361220789,4.70665014005212,-0.00417028692145394,1,13.9,29.9
2.36666666666667,11.7778502042324,20.3823523117802,4.70248135286413,-0.00416878718799207,1,13.9,29.9
2.4,11.7768733165128,20.5390291804144,4.69831370591172,-0.00416764695241056,1,13.9,29.9
2.43333333333333,11.7758428624914,20.6955667943789,4.69414674209274,-0.0041669638189834,1,13.9,29.9
2.46666666666667,11.7747739302567,20.8519652551531,4.68998014316638,-0.00416659892635796,1,13.9,29.9
2.5,11.7736860322834,21.0081956336398,4.68406991493951,-0.00591022822687037,1,13.9,29.9
2.53333333333333,11.7726040743001,21.1639405680964,4.66085215013137,-0.023217764808134,3,13.9,29.9
2.56666666666667,11.7715572035076,21.318536903597,4.61514192933226,-0.0457102207991102,3,13.9,29.9
2.6,11.7705759760712,21.4715236364468,4.56425288939526,-0.050889039937001,3,13.9,29.9
2.63333333333333,11.7696881640364,21.6227861176932,4.51165511313638,-0.0525977762588852,3,13.9,29.9
2.66666666666667,11.768913511988,21.7722097266755,4.45388546668488,-0.0577696464514954,3,13.9,29.9
2.7,11.7682603306652,21.9194778246188,4.38229186702551,-0.0715935996593755,3,13.9,29.9
2.73333333333333,11.7677262236395,22.0642450907876,4.30380898789971,-0.0784828791257981,3,13.9,29.9
2.76666666666667,11.7673005091956,22.2062527235559,4.21669471708435,-0.0871142708153574,3,13.9,29.9
2.8,11.7669675220866,22.3452416298027,4.12267322764523,-0.0940214894391227,3,13.9,29.9
2.83333333333333,11.7667089200473,22.4809818725484,4.02176841040382,-0.100904817241409,3,13.9,29.9
2.86666666666667,11.7665057192753,22.6132726804077,3.91570465809808,-0.106063752305739,3,13.9,29.9
2.9,11.7663401392825,22.7418843158126,3.80101814434509,-0.114686513752986,3,13.9,29.9
2.93333333333333,11.7661967883544,22.8665584415917,3.67945546732512,-0.121562677019978,3,13.9,29.9
2.96666666666667,11.7660631391215,22.9870945900844,3.55274132814076,-0.126714139184357,3,13.9,29.9
3,11.7659298500594,23.1034075570276,3.42606616195238,-0.12667516618838,3,13.9,29.9
3.03333333333333,11.7657914869968,23.2153831390913,3.29249930502134,-0.133566856931035,3,13.9,29.9
3.06666666666667,11.7656464672741,23.3228494260682,3.15550868306388,-0.136990621957462,3,13.9,29.9
3.1,11.7654959962243,23.4257501017645,3.01856181689014,-0.136946866173738,3,13.9,29.9
3.13333333333333,11.765343666734,23.5240579547272,2.87993744577233,-0.138624371117817,3,13.9,29.9
3.16666666666667,11.7651948549841,23.6176880315966,2.73789243139073,-0.142045014381594,3,13.9,29.9
3.2,11.7650555669087,23.7065554030561,2.59417160209554,-0.143720829295188,3,13.9,29.9
3.23333333333333,11.764931256256,23.7906616299622,2.45221991830654,-0.141951683789001,3,13.9,29.9
3.26666666666667,11.7648262826041,23.8700082781446,2.30859326386331,-0.143626654443238,3,13.9,29.9
3.3,11.7647432843105,23.9445971316928,2.16678737208567,-0.141805891777634,3,13.9,29.9
3.33333333333333,11.7646829857167,24.0144439161889,2.02434148108865,-0.142445890997021,3,13.8991319444444,29.9
3.36666666666667,11.76464443275,24.0795790908458,1.88420077816488,-0.140140702923773,3,13.8965277777778,29.9
3.4,11.7646252957875,24.1400869438252,1.74672463441597,-0.137476143748904,3,13.8921875,29.9
3.43333333333333,11.7646225471143,24.1960860136238,1.61366915573437,-0.133055478681602,3,13.8861111111111,29.9
3.46666666666667,11.7646332206793,24.2477522558355,1.48675373843864,-0.126915417295727,3,13.8782986111111,29.9
3.5,11.764654490809,24.2952317551843,1.36245564903884,-0.124298089399805,3,13.86875,29.9
3.53333333333333,11.7646841201555,24.3386395342469,1.24244315017424,-0.120012498864598,3,13.8574652777778,29.9
3.56666666666667,11.7647204207203,24.3780884383826,1.12491310982194,-0.117530040352302,3,13.8444444444444,29.9
3.6,11.764762144239,24.4136604459014,1.00984055000378,-0.115072559818157,3,13.8296875,29.9
3.63333333333333,11.7648080052114,24.4454966356136,0.900783279396729,-0.109057270607052,3,13.8131944444444,29.9
3.66666666666667,11.7648567162722,24.4738271520101,0.799488886894083,-0.101294392502646,3,13.7949652777778,29.9
3.7,11.7649070371693,24.4988796561462,0.70407328860299,-0.095415598291093,3,13.775,29.9
3.73333333333333,11.7649578744807,24.5208180941541,0.612626999122164,-0.0914462894808254,3,13.7532986111111,29.9
3.76666666666667,11.7650082935808,24.5397449175946,0.523379558519021,-0.0892474406031434,3,13.7298611111111,29.9
3.8,11.7650572684369,24.5558488200052,0.443248328235777,-0.0801312302832441,3,13.7046875,29.9
3.83333333333333,11.7651037085302,24.5694034921467,0.370407971930844,-0.0728403563049324,3,13.6777777777778,29.9
3.86666666666667,11.7651466773441,24.5806494896961,0.304704900401992,-0.0657030715288526,3,13.6491319444444,29.9
3.9,11.7651852833203,24.5898506263372,0.24769446910077,-0.0570104313012216,3,13.61875,29.9
3.93333333333333,11.7652187512821,24.597265093506,0.19749033018387,-0.0502041389169,3,13.5866319444444,29.9
3.96666666666667,11.7652464162034,24.6031471379365,0.155757434768842,-0.0417328954150285,3,13.5527777777778,29.9
4,11.7652676582683,24.607777802196,0.122413829604694,-0.033343605164148,3,13.5171875,29.9
4.03333333333333,11.7652820695446,24.6113487268006,0.0921889067673635,-0.0302249228373302,3,13.4798611111111,29.9
4.06666666666667,11.7652894817213,24.6139326080697,0.0632398296916848,-0.0289490770756787,3,13.4407986111111,29.9
4.1,11.7652898145228,24.6155696690725,0.0355170840456643,-0.0277227456460205,3,13.4,29.9
4.13333333333333,11.7652829707575,24.6163259870551,0.0110496597983864,-0.0244674242472779,3,13.3574652777778,29.9
4.16666666666667,11.7652687499356,24.6163397808976,0.00500511858206511,-0.00604454121632125,5,13.3131944444444,29.9
4.2,11.765246166994,24.6162447798162,0.00404162429575694,-0.000963494286308169,5,13.2671875,29.9
4.23333333333333,11.765246166994,24.6162447798162,0.00397754792900915,-6.40763667477933e-05,5,13.2194444444444,29.9
4.26666666666667,11.765246166994,24.6162447798162,0.00387189446039619,-0.000105653468612959,5,13.1699652777778,29.9
4.3,11.765246166994,24.6162447798162,0.00370909404124088,-0.000162800419155309,5,13.11875,29.9
4.33333333333333,11.765246166994,24.6162447798162,0.00347541506797148,-0.000233678973269402,5,13.0657986111111,29.9
4.36666666666667,11.765246166994,24.6162447798162,0.0031618834432417,-0.000313531624729779,5,13.0111111111111,29.9
4.4,11.765246166994,24.6162447798162,0.00276616787553806,-0.000395715567703643,5,12.9546875,29.9
4.43333333333333,11.765246166994,24.6162447798162,0.00229341316391589,-0.000472754711622168,5,12.8965277777778,29.9
4.46666666666667,11.765246166994,24.6162447798162,0.00175609980871423,-0.000537313355201657,5,12.8366319444444,29.9
4.5,11.765246166994,24.6162447798162,0.00117308190656429,-0.000583017902149942,5,12.775,29.9
4.53333333333333,11.765246166994,24.6162447798162,0.000568004248552936,-0.000605077658011354,5,12.7116319444444,29.9
4.56666666666667,11.765246166994,24.6162447798162,3.26758668268439e-05,-0.000535328381726092,5,12.6465277777778,29.9
4.6,11.765246166994,24.6162447798162,0.000601834298637696,0.000569158431810852,5,12.5796875,29.9
4.63333333333333,11.765246166994,24.6162447798162,0.00111378199772437,0.000511947699086673,5,12.5111111111111,29.9
4.66666666666667,11.765246166994,24.6162447798162,0.00154614322882384,0.00043236123109947,5,12.4407986111111,29.9
4.7,11.765246166994,24.6162447798162,0.00188137127913449,0.000335228050310655,5,12.36875,29.9
4.73333333333333,11.765246166994,24.6162447798162,0.00210780930569297,0.000226438026558472,5,12.2949652777778,29.9
4.76666666666667,11.765246166994,24.6162447798162,0.0022202513604671,0.000112442054774139,5,12.2194444444444,29.9
4.8,11.765246166994,24.6162447798162,0.00222000320962587,-2.48150841231001e-07,5,12.1421875,29.9
4.83333333333333,11.765246166994,24.6162447798162,0.00211448136611009,-0.000105521843515784,5,12.0631944444444,29.9
4.86666666666667,11.765246166994,24.6162447798162,0.00191641968580468,-0.000198061680305405,5,11.9824652777778,29.9
4.9,11.765246166994,24.6162447798162,0.00164277472697965,-0.000273644958825036,5,11.9,29.9
4.93333333333333,11.765246166994,24.6162447798162,0.00131343346784096,-0.000329341259138685,5,11.8157986111111,29.9
4.96666666666667,11.765246166994,24.6162447798162,0.000949830283691009,-0.000363603184149955,5,11.7298611111111,29.9
5,11.765246166994,24.6162447798162,0.000573575270735892,-0.000376255012955117,5,11.6421875,29.9
5.03333333333333,11.765246166994,24.6162447798162,0.000205184479500807,-0.000368390791235085,5,11.5527777777778,29.9
5.06666666666667,11.765246166994,24.6162447798162,0.000137013921917003,-6.81705575838036e-05,5,11.4616319444444,29.9
5.1,11.765246166994,24.6162447798162,0.000437743284749822,0.000300729362832819,5,11.36875,29.9
5.13333333333333,11.765246166994,24.6162447798162,0.00068537881666418,0.000247635531914358,5,11.2741319444444,29.9
5.16666666666667,11.765246166994,24.6162447798162,0.00087227246556468,0.0001868936489005,5,11.1777777777778,29.9
5.2,11.765246166994,24.6162447798162,0.0009948095131378,0.00012253704757312,5,11.0796875,29.9
5.23333333333333,11.765246166994,24.6162447798162,0.00105322062172084,5.84111085830436e-05,5,10.9798611111111,29.9
5.26666666666667,11.765246166994,24.6162447798162,0.00105118615009156,-2.03447162928352e-06,5,10.8782986111111,29.9
5.3,11.765246166994,24.6162447798162,0.000995278684163728,-5.59074659278328e-05,5,10.775,29.9
5.33333333333333,11.765246166994,24.6162447798162,0.00089429480579933,-0.000100983878364398,5,10.6699652777778,29.9
5.36666666666667,11.765246166994,24.6162447798162,0.000758528320051194,-0.000135766485748137,5,10.5631944444444,29.9
5.4,11.765246166994,24.6162447798162,0.000599034885040194,-0.000159493435010999,5,10.4546875,29.9
5.43333333333333,11.765246166994,24.6162447798162,0.000426932821051388,-0.000172102063988806,5,10.3444444444444,29.9
5.46666666666667,11.765246166994,24.6162447798162,0.000252777510523554,-0.000174155310527834,5,10.2324652777778,29.9
5.5,11.765246166994,24.6162447798162,8.60379842543289e-05,-0.000166739526269225,5,10.11875,29.9
5.53333333333333,11.765246166994,24.6162447798162,6.53052368649241e-05,-2.07327473894048e-05,5,10.0032986111111,29.9
5.56666666666667,11.765246166994,24.6162447798162,0.000195031520792409,0.000129726283927485,5,9.88611111111111,29.9
5.6,11.765246166994,24.6162447798162,0.000298820164243531,0.000103788643451122,5,9.7671875,29.9
5.63333333333333,11.765246166994,24.6162447798162,0.000374266431206357,7.54462669628264e-05,5,9.64652777777778,29.9
5.66666666666667,11.765246166994,24.6162447798162,0.000420787404072594,4.65209728662368e-05,5,9.52413194444444,29.9
5.7,11.765246166994,24.6162447798162,0.000439436298262469,1.86488941898749e-05,5,9.4,29.9
5.73333333333333,11.765246166994,24.6162447798162,0.000432647001287144,-6.78929697532453e-06,5,9.27413194444444,29.9
5.76666666666667,11.765246166994,24.6162447798162,0.000403932012028898,-2.87149892582462e-05,5,9.14652777777778,29.9
5.8,11.765246166994,24.6162447798162,0.000357556807967443,-4.63752040614548e-05,5,9.0171875,29.9
5.83333333333333,11.765246166994,24.6162447798162,0.00029821216828004,-5.93446396874031e-05,5,8.88611111111111,29.9
5.86666666666667,11.765246166994,24.6162447798162,0.00023070339527277,-6.75087730072699e-05,5,8.75329861111111,29.9
5.9,11.765246166994,24.6162447798162,6.10595732703326e-05,-0.000169643822002438,5,8.61875,29.9
5.93333333333333,11.7652458324215,24.6164523102778,0.00773743078025775,0.00767637120698742,5,8.48246527777778,29.9
5.96666666666667,11.765245290744,24.6167881927929,0.0124196754561287,0.00468224467587097,5,8.34444444444444,29.9
6,11.7652443621718,24.61736486,0.0221897430827693,0.00977006762664061,5,8.2046875,29.9
6.03333333333333,11.7652429168441,24.6182647193347,0.0318090338751672,0.00961929079239785,5,8.06319444444445,29.9
6.06666666666667,11.765240969828,24.6194819885571,0.0412321339138826,0.00942310003871541,5,7.91996527777778,29.9
6.1,11.7652384947116,24.6210386914909,0.0521692068917996,0.010937072977917,5,7.775,29.9
6.13333333333333,11.7652352388996,24.6230998861852,0.0714841502853008,0.0193149433935012,4,7.62829861111111,29.9
6.16666666666667,11.7652307300027,24.6259721043243,0.10079981536429,0.0293156650789891,4,7.47986111111111,29.9
6.2,11.7652247519315,24.6298133455641,0.129596489174431,0.0287966738101413,4,7.3296875,29.9
6.23333333333333,11.7652173998009,24.6346042387881,0.157759898489261,0.0281634093148298,4,7.17777777777778,29.9
6.26666666666667,11.7652085727461,24.6404660603622,0.193832703438391,0.0360728049491299,4,7.02413194444444,29.9
6.3,11.7651981695214,24.6475457832651,0.230813619933794,0.0369809164954031,4,6.86875,29.9
6.33333333333333,11.7651864259679,24.6558141620912,0.265152081650247,0.0343384617164529,4,6.71163194444445,29.9
6.36666666666667,11.7651735897644,24.6652704704535,0.302095751189399,0.0369436695391524,4,6.55277777777778,29.9
6.4,11.7651596895521,24.6760888701854,0.346876450416524,0.0447806992271245,4,6.3921875,29.9
6.43333333333333,11.7651449228361,24.6883857424233,0.390799769248686,0.0439233188321626,4,6.22986111111111,29.9
6.46666666666667,11.7651298053819,24.7021321862786,0.433848114917301,0.0430483456686147,4,6.06579861111111,29.9
6.5,11.7651149341778,24.7172988590144,0.476010918448985,0.0421628035316836,4,5.9,29.9
6.53333333333333,11.7651009778572,24.7338558989188,0.517263841453769,0.041252923004784,4,5.9,29.9
