Time,x_ego,y_ego,velocity,acceleration,action,x_ped,y_ped
0,11.8,15.9,5,0,1,15.5,29.9
0.0333333333333333,11.7999957669561,16.0666076888358,4.99642262734244,-0.00357737265755809,1,15.5,29.9
0.0666666666666667,11.7999686107649,16.2330926528408,4.99264772410598,-0.0037749032364669,1,15.5,29.9
0.1,11.7999023824245,16.3994492943407,4.98873188164677,-0.00391584245920473,1,15.5,29.9
0.133333333333333,11.7997877776543,16.5656736125733,4.9847155824563,-0.00401629919047153,1,15.5,29.9
0.166666666666667,11.7996211535683,16.7317627499113,4.98062771735014,-0.00408786510616288,1,15.5,29.9
0.2,11.7994030762894,16.8977146680811,4.97648890082032,-0.00413881652981463,1,15.5,29.9
0.233333333333333,11.7991369031995,17.0635279173905,4.97231387277804,-0.00417502804227965,1,15.5,29.9
0.266666666666667,11.7988281960352,17.2292014723352,4.9681131375196,-0.004200735258439,1,15.5,29.9
0.3,11.798485874759,17.394734615468,4.96389419916423,-0.00421893835537546,1,15.5,29.9
0.333333333333333,11.7981205191451,17.5601268532665,4.95966258510687,-0.00423161405735684,1,15.5,29.9
0.366666666666667,11.797740975181,17.7253778522906,4.95542238862151,-0.00424019648536245,1,15.5,29.9
0.4,11.7973536550039,17.8904873923948,4.95117656890049,-0.00424581972102089,1,15.5,29.9
0.433333333333333,11.7969627293274,18.0554553329898,4.94692724314906,-0.00424932575142911,1,15.5,29.9
0.466666666666667,11.7965704198259,18.2202815889253,4.9426759134457,-0.00425132970335707,1,15.5,29.9
0.5,11.7961773160944,18.384966113506,4.93842363991692,-0.00425227352878554,1,15.5,29.9
0.533333333333333,11.7957826885114,18.549508886679,4.93417116926263,-0.00425247065428991,1,15.5,29.9
0.566666666666667,11.7953847974813,18.7139099069023,4.92991902759317,-0.00425214166945853,1,15.5,29.9
0.6,11.794981208995,18.8781691856045,4.92566758610252,-0.00425144149064582,1,15.5,29.9
0.633333333333333,11.7945691203245,19.0422867434653,4.92141710684468,-0.00425047925783772,1,15.5,29.9
0.666666666666667,11.7941456855928,19.2062626079753,4.91716777429233,-0.0042493325523516,1,15.5,29.9
0.7,11.793708317149,19.370096811885,4.91291971696626,-0.00424805732606792,1,15.5,29.9
0.733333333333333,11.7932549314161,19.5337893922456,4.9086730224237,-0.00424669454255877,1,15.5,29.9
0.766666666666667,11.7927841101627,19.6973403898028,4.90442774815218,-0.00424527427152821,1,15.5,29.9
0.8,11.7922951593873,19.8607498485509,4.90018393018983,-0.00424381796235007,1,15.5,29.9
0.833333333333333,11.7917880648367,20.0240178153072,4.89594159046943,-0.00424233972039723,1,15.5,29.9
0.866666666666667,11.7912633608595,20.1871443392271,4.89170074308147,-0.00424084738795738,1,15.5,29.9
0.9,11.7907219432134,20.3501294712405,4.88746139912517,-0.00423934395630621,1,15.5,29.9
0.933333333333333,11.7901648633881,20.5129732634439,4.88322356973969,-0.00423782938547657,1,15.5,29.9
0.966666666666667,11.789593140845,20.6756757685094,4.87898726722792,-0.00423630251176643,1,15.5,29.9
1,11.7890076212877,20.8382370391816,4.87475250464821,-0.00423476257971522,1,15.5,29.9
1.03333333333333,11.7884088962497,21.0006571279145,4.87051929457044,-0.00423321007777133,1,15.5,29.9
1.06666666666667,11.7877972852566,21.1629360866738,4.86628764772335,-0.00423164684709043,1,15.5,29.9
1.1,11.7871734721647,21.3250739687066,4.86205752665468,-0.00423012106866327,1,15.5,29.9
1.13333333333333,11.786540033758,21.4870708333961,4.8578289175442,-0.00422860911047884,1,15.5,29.9
1.16666666666667,11.7858996766217,21.6489267414338,4.85360181933714,-0.00422709820706313,1,15.5,29.9
1.2,11.7852560736291,21.8106417574803,4.84937624793882,-0.00422557139831703,1,15.5,29.9
1.23333333333333,11.7846123873259,21.9722159454603,4.84515221914158,-0.00422402879723993,1,15.5,29.9
1.26666666666667,11.7839729353844,22.1336493817613,4.84093066342985,-0.00422155571172933,1,15.5,29.9
1.3,11.7833425235228,22.294942243154,4.8367169047997,-0.0042137586301525,1,15.5,29.9
1.33333333333333,11.7827238905974,22.4560949370003,4.83251948483889,-0.00419741996080969,1,15.5,29.9
1.36666666666667,11.7821175775232,22.6171081675625,4.82834797840098,-0.00417150643791242,1,15.5,29.9
1.4,11.7815225146707,22.7779829549096,4.82421201320545,-0.00413596519553394,1,15.5,29.9
1.43333333333333,11.7809360208137,22.9387206301149,4.82012092377077,-0.00409108943467551,1,15.5,29.9
1.46666666666667,11.7803523173378,23.0993228113307,4.81608309075701,-0.00403783301376492,1,15.5,29.9
1.5,11.779763174568,23.259791362827,4.81210542165007,-0.00397766910693598,1,15.5,29.9
1.53333333333333,11.7791586430306,23.4201283489271,4.80819348083303,-0.00391194081703805,1,15.5,29.9
1.56666666666667,11.7785254154863,23.5803359799586,4.80435137990727,-0.00384210092575721,1,15.5,29.9
1.6,11.7778464224641,23.7404165499034,4.8005813422301,-0.0037700376771781,1,15.5,29.9
1.63333333333333,11.7771052217923,23.9003723742278,4.79688295991155,-0.00369838231854125,1,15.5,29.9
1.66666666666667,11.776290261783,24.0602064052507,4.79340981744113,-0.00347314247042707,1,15.5,29.9
1.7,11.7753968059176,24.219970139655,4.79383721245656,0.000427395015433873,1,15.5,29.9
1.73333333333333,11.7744257673834,24.379901518787,4.8040609381013,0.0102237256447362,1,15.5,29.9
1.76666666666667,11.7733833821151,24.5403599538891,4.82550428097291,0.0214433428716152,4,15.5,29.9
1.8,11.7722782471924,24.701711973749,4.85747907300065,0.0319747920277349,4,15.5,29.9
1.83333333333333,11.7711209663136,24.8642836802888,4.89842622494641,0.0409471519457636,4,15.5,29.9
1.86666666666667,11.7699209064536,25.0283465566666,4.94669733471923,0.0482711097728208,4,15.5,29.9
1.9,11.7686850320607,25.1941186012233,5.000742686111,0.0540453513917702,4,15.5,29.9
1.93333333333333,11.7674177952171,25.3617687097454,5.05918211572548,0.0584394296144728,4,15.5,29.9
1.96666666666667,11.7661212715738,25.5314236478404,5.12087257566929,0.0616904599438142,4,15.5,29.9
2,11.7647954433258,25.7031760326838,5.18490700850075,0.0640344328314573,4,15.5,29.9
2.03333333333333,11.7634385685807,25.8770914472623,5.2505535062863,0.0656464977855507,4,15.5,29.9
2.06666666666667,11.7620476033183,26.0532132952684,5.31722347418078,0.0666699678944802,4,15.5,29.9
2.1,11.7606186331362,26.2315681488214,5.38448295721742,0.0672594830366426,4,15.5,29.9
2.13333333333333,11.7591473047857,26.412169531355,5.45198513058455,0.0675021733671253,4,15.5,29.9
2.16666666666667,11.7576292236066,26.5950216058191,5.51951534580269,0.0675302152181452,4,15.5,29.9
2.2,11.7560602915865,26.7801224022683,5.58689679767846,0.0673814518757654,4,15.5,29.9
2.23333333333333,11.7544369762779,26.9674641849444,5.65397935823019,0.0670825605517296,4,15.5,29.9
2.26666666666667,11.7527564611854,27.1570355171651,5.72068266455343,0.066703306323241,4,15.5,29.9
2.3,11.7510166873693,27.348822662925,5.7869420128476,0.0662593482941771,4,15.5,29.9
2.33333333333333,11.749216300348,27.5428097458035,5.85269790214955,0.0657558893019488,4,15.5,29.9
2.36666666666667,11.7473545142334,27.7389793018386,5.917912799625,0.0652148974754505,4,15.5,29.9
2.4,11.7454309303871,27.9373126449949,5.98254676661716,0.0646339669921527,4,15.5,29.9
2.43333333333333,11.7434453497449,28.1377896376644,6.04655537281047,0.0640086061933145,4,15.5,29.9
2.46666666666667,11.7413976032394,28.3403888053556,6.10990292345921,0.0633475506487393,4,15.5,29.9
2.5,11.7392874268967,28.5450872727982,6.17252155252593,0.0626186290667166,4,15.5,29.9
2.53333333333333,11.7371144185964,28.7518575497042,6.23421392132851,0.0616923688025857,4,15.5,29.9
2.56666666666667,11.7348780296309,28.9606665433987,6.29487153521151,0.060657613882996,4,15.5,29.9
2.6,11.7325775542104,29.1714795009439,6.35449331184181,0.0596217766302987,4,15.5,29.9
2.63333333333333,11.7302121511828,29.3842629551024,6.41315101336157,0.058657701519766,4,15.5,29.9
2.66666666666667,11.7277808897394,29.5989858935502,6.47090577008682,0.0577547567252443,4,15.5,29.9
2.7,11.7252828102387,29.8156188097732,6.52779471205717,0.0568889419703504,4,15.5,29.9
2.73333333333333,11.7227169631505,30.0341336501541,6.58387150792441,0.0560767958672397,4,15.5,29.9
2.76666666666667,11.7200824228291,30.2545045459107,6.63921303156346,0.0553415236390498,4,15.5,29.9
2.8,11.7173790546947,30.4767081271656,6.69386386880429,0.0546508372408363,4,15.5,29.9
2.83333333333333,11.7146093194155,30.7007186982092,6.74763314860995,0.0537692798056559,4,15.5,29.9
2.86666666666667,11.7117739160996,30.926616875291,6.81006801266282,0.0624348640528725,4,15.5,29.9
2.9,11.7088685422381,31.1548156105582,6.88422533160368,0.0741573189408635,4,15.5,29.9
2.93333333333333,11.7058903164017,31.38557837437,6.96306778140127,0.0788424497975901,4,15.5,29.9
2.96666666666667,11.7028412345187,31.6189872920704,7.04253711701251,0.079469335611237,4,15.5,29.9
3,11.6997260216054,31.8550217299471,7.1203689516229,0.0778318346103841,4,15.5,29.9
3.03333333333333,11.6965487400995,32.0936060017982,7.19544942219839,0.0750804705754966,4,15.5,29.9
3.06666666666667,11.6933143051844,32.334640350791,7.26738377055742,0.0719343483590293,4,15.5,29.9
3.1,11.6900255618913,32.5780196512774,7.33620721557212,0.0688234450146963,4,15.5,29.9
3.13333333333333,11.6866840272171,32.82364405508,7.40217291936812,0.0659657037959995,4,15.5,29.9
3.16666666666667,11.6832926197158,33.0714238865253,7.46562137090163,0.0634484515335121,4,15.5,29.9
3.2,11.6798528415544,33.3212812088572,7.52690836428897,0.0612869933873403,4,15.5,29.9
3.23333333333333,11.6763645981067,33.5731495910503,7.58636565000168,0.0594572857127105,4,15.5,29.9
3.26666666666667,11.6728268729688,33.8269730456499,7.6442885544001,0.0579229043984242,4,15.5,29.9
3.3,11.6692382129307,34.0827048175864,7.70093581009589,0.0566472556957853,4,15.5,29.9
3.33333333333333,11.6655970374225,34.3403061796287,7.756532368446,0.055596558350107,4,15.5,29.9
3.36666666666667,11.6619018100644,34.599745401085,7.81126775243853,0.0547353839925346,4,15.5,29.9
3.4,11.658151130908,34.8609959067702,7.86526389179313,0.0539961393545996,4,15.5,29.9
3.43333333333333,11.6543437721738,35.1240348341099,7.91862868725169,0.0533647954585597,4,15.5,29.9
3.46666666666667,11.6504786736727,35.3888427894114,7.97146059336677,0.052831906115081,4,15.5,29.9
3.5,11.6465549286735,35.6554036525399,8.02386151275217,0.0524009193853958,4,15.5,29.9
3.53333333333333,11.6425717635707,35.9237046274299,8.07592032997884,0.0520588172266692,4,15.5,29.9
3.56666666666667,11.6385285302052,36.1937352529708,8.12768904594475,0.0517687159659168,4,15.5,29.9
3.6,11.6344246974006,36.4654862713589,8.17918592961484,0.0514968836700831,4,15.5,29.9
3.63333333333333,11.6302598416702,36.7389483212418,8.23039073337523,0.05120480376039,4,15.5,29.9
3.66666666666667,11.6260336249167,37.0141113566716,8.28128760792996,0.0508968745547325,4,15.5,29.9
3.7,11.6217457582783,37.2909649867003,8.33187062898975,0.0505830210597953,4,15.5,29.9
3.73333333333333,11.6173959701709,37.5694986953307,8.38213725811093,0.0502666291211753,4,15.5,29.9
3.76666666666667,11.6129839822207,37.8497018981204,8.43208622825657,0.049948970145639,4,15.5,29.9
3.8,11.6085094927461,38.1315639965082,8.48171741449903,0.0496311862424577,4,15.5,29.9
3.83333333333333,11.6039721706169,38.4150742842544,8.5310211625361,0.0493037480370724,4,15.5,29.9
3.86666666666667,11.599371665083,38.7002212988634,8.57996292744344,0.0489417649073456,4,15.5,29.9
3.9,11.5947076176033,38.9869924198583,8.62851312693253,0.0485501994890853,4,15.5,29.9
3.93333333333333,11.5899796636589,39.2753743244854,8.67665825992771,0.0481451329951756,4,15.5,29.9
