Time,x_ego,y_ego,velocity,acceleration,action,x_ped,y_ped
0,11.8,8.9,7,0,1,15.5,29.9
0.0333333333333333,11.7999991556326,9.13327037939405,6.9961557798823,-0.00384422011770269,1,15.3694444444444,29.9
0.0666666666666667,11.7999938724217,9.36640659880093,6.99196947498367,-0.00418630489862348,1,15.2444444444444,29.9
0.1,11.799981290911,9.5994007551861,6.98769500047537,-0.00427447450830609,1,15.125,29.9
0.133333333333333,11.799959928311,9.83225378487076,6.98349768237817,-0.0041973180971997,1,15.0111111111111,29.9
0.166666666666667,11.7999292675115,10.064967878987,6.9793558991536,-0.00414178322456493,1,14.9027777777778,29.9
0.2,11.7998893888109,10.2975446157421,6.97525415530547,-0.00410174384813455,1,14.8,29.9
0.233333333333333,11.7998406878021,10.5299851341457,6.97118134647772,-0.00407280882774508,1,14.7027777777778,29.9
0.266666666666667,11.7997836887301,10.76229025851,6.96712951555286,-0.00405183092486805,1,14.6111111111111,29.9
0.3,11.7997189398368,10.9944605876619,6.9630929607827,-0.00403655477015707,1,14.525,29.9
0.333333333333333,11.7996469661865,11.2264965588621,6.95906759649829,-0.00402536428440392,1,14.4444444444444,29.9
0.366666666666667,11.7995682542707,11.4583984935997,6.95505049501719,-0.00401710148110634,1,14.3694444444444,29.9
0.4,11.7994832480002,11.6901666304015,6.95103955844974,-0.00401093656744589,1,14.3,29.9
0.433333333333333,11.7993923439172,11.9218011483377,6.94703328355868,-0.00400627489105787,1,14.2361111111111,29.9
0.466666666666667,11.7992958815275,12.1533021838602,6.94303059324841,-0.00400269031027456,1,14.1777777777778,29.9
0.5,11.7991941305593,12.3846698428662,6.93903071576646,-0.00399987748194697,1,14.125,29.9
0.533333333333333,11.7990872798548,12.6159042093404,6.93503309808947,-0.00399761767699491,1,14.0777777777778,29.9
0.566666666666667,11.7989754326791,12.8470053515472,6.93103734382374,-0.00399575426572962,1,14.0361111111111,29.9
0.6,11.7988586113389,13.0779733264704,6.92704316870383,-0.00399417511991107,1,14,29.9
0.633333333333333,11.7987367820555,13.3087791174091,6.9213064679272,-0.00573670077663024,1,13.9694444444444,29.9
0.666666666666667,11.7986099577976,13.5391629986351,6.90172901426353,-0.0195774536636621,3,13.9444444444444,29.9
0.7,11.7984782520857,13.7686058722094,6.86484657646587,-0.0368824377976642,3,13.925,29.9
0.733333333333333,11.7983418022066,13.9966177802853,6.81587161847789,-0.048974957987979,3,13.9111111111111,29.9
0.766666666666667,11.7982008467346,14.2226223706359,6.74440830276824,-0.0714633157096483,3,13.9027777777778,29.9
0.8,11.798055715834,14.4460143274173,6.65911438976928,-0.085293912998968,3,13.9,29.9
0.833333333333333,11.7979066832275,14.6664769115572,6.56864681022837,-0.0904675795409045,3,13.9,29.9
0.866666666666667,11.7977540037009,14.883866391678,6.47472935466169,-0.0939174555666806,3,13.9,29.9
0.9,11.7975979840841,15.098039081759,6.37564114439641,-0.0990882102652826,3,13.9,29.9
0.933333333333333,11.7974389847415,15.3088226342897,6.27138337406161,-0.104257770334796,3,13.9,29.9
0.966666666666667,11.7972773908126,15.5160447404662,6.1619570597447,-0.109426314316917,3,13.9,29.9
1,11.7971136006167,15.7195331270888,6.04736307359756,-0.114593986147139,3,13.9,29.9
1.03333333333333,11.7969479988348,15.9191442564691,5.92932429856793,-0.118038775029626,3,13.9,29.9
1.06666666666667,11.7967809500818,16.1147636834607,5.80786305140322,-0.121461247164713,3,13.9,29.9
1.1,11.7966128554131,16.3062192167643,5.67949200141973,-0.128371049983487,3,13.9,29.9
1.13333333333333,11.796444178253,16.4932518590384,5.54248995751795,-0.137002043901783,3,13.9,29.9
1.16666666666667,11.7962753059767,16.6757181853502,5.40551230224075,-0.136977655277192,3,13.9,29.9
1.2,11.7961065264302,16.8536190287424,5.26855936207175,-0.136952940169004,3,13.9,29.9
1.23333333333333,11.7959381295823,17.0269552275425,5.13163137172261,-0.136927990349141,3,13.9,29.9
1.26666666666667,11.7957704067499,17.1957276212105,4.99472849313546,-0.136902878587147,3,13.9,29.9
1.3,11.7956036487982,17.359937047363,4.85785081570207,-0.136877677433389,3,13.9,29.9
1.33333333333333,11.7954381435948,17.5195843396421,4.72099834694014,-0.136852468761935,3,13.9,29.9
1.36666666666667,11.795274173194,17.6746703261886,4.58417100234278,-0.13682734459736,3,13.9,29.9
1.4,11.7951120121708,17.8251948227734,4.44728080339141,-0.136890198951367,3,13.9,29.9
1.43333333333333,11.7949518762719,17.9712120662108,4.31374481968745,-0.133535983703959,3,13.9,29.9
1.46666666666667,11.7947939674075,18.1127768800813,4.18014215168659,-0.133602668000862,3,13.9,29.9
1.5,11.7946384709357,18.2499453725464,4.04997120928118,-0.130170942405408,3,13.9,29.9
1.53333333333333,11.7944855575382,18.3827745620363,3.91978853924686,-0.130182670034326,3,13.9,29.9
1.56666666666667,11.7943354386804,18.5112643449176,3.78961036983519,-0.130178169411663,3,13.9,29.9
1.6,11.7941883162842,18.6354150799225,3.65944824691184,-0.13016212292335,3,13.9,29.9
1.63333333333333,11.7940443852157,18.7552274546658,3.52931038276465,-0.130137864147193,3,13.9,29.9
1.66666666666667,11.7939038352548,18.8707023899763,3.39920261960528,-0.130107763159372,3,13.9,29.9
1.7,11.7937668523452,18.9818409713296,3.26912911351932,-0.130073506085957,3,13.9,29.9
1.73333333333333,11.793633619083,19.0886443997061,3.13909281610978,-0.130036297409539,3,13.9,29.9
1.76666666666667,11.7935043749775,19.1910561877286,3.00562973785324,-0.133463078256538,3,13.9,29.9
1.8,11.7933794491666,19.2889334400255,2.86701961247354,-0.138610125379701,3,13.9,29.9
1.83333333333333,11.79325911149,19.3821910887465,2.72845247575271,-0.138567136720836,3,13.8991319444444,29.9
1.86666666666667,11.7931436030722,19.4707728126186,2.58646334122303,-0.14198913452968,3,13.8965277777778,29.9
1.9,11.7930331649449,19.5546223251396,2.44451939834933,-0.141943942873697,3,13.8921875,29.9
1.93333333333333,11.7929279731642,19.6337411344915,2.30262124016004,-0.141898158189291,3,13.8861111111111,29.9
1.96666666666667,11.7928281940911,19.7081310095625,2.16082717748156,-0.141794062678478,3,13.8782986111111,29.9
2,11.792733964065,19.7778087330878,2.02016835005325,-0.14065882742831,3,13.86875,29.9
2.03333333333333,11.7926453555219,19.8428347598828,1.88183083610507,-0.138337513948182,3,13.8574652777778,29.9
2.06666666666667,11.7925623975451,19.9032934647124,1.74615026854593,-0.135680567559142,3,13.8444444444444,29.9
2.1,11.7924850632854,19.9593033350579,1.61489387776934,-0.131256390776587,3,13.8296875,29.9
2.13333333333333,11.7924132763878,20.0110109506061,1.48801189839289,-0.126881979376444,3,13.8131944444444,29.9
2.16666666666667,11.7923469783806,20.058532695362,1.36373003036529,-0.124281868027607,3,13.7949652777778,29.9
2.2,11.792286130945,20.1019544230344,1.24200066549493,-0.121729364870359,3,13.775,29.9
2.23333333333333,11.7922306850119,20.1413601076012,1.12275424183255,-0.119246423662379,3,13.7532986111111,29.9
2.26666666666667,11.792180582681,20.1768319410353,1.00597799209922,-0.116776249733327,3,13.7298611111111,29.9
2.3,11.792135754966,20.2084538638384,0.891778378227821,-0.114199613871402,3,13.7046875,29.9
2.33333333333333,11.7920961217636,20.2363129726665,0.780198539802057,-0.111579838425764,3,13.6777777777778,29.9
2.36666666666667,11.7920615989386,20.260494695157,0.671114144742342,-0.109084395059715,3,13.6491319444444,29.9
2.4,11.7920321023955,20.2810803626149,0.564438639143592,-0.10667550559875,3,13.61875,29.9
2.43333333333333,11.7920075107899,20.298179300435,0.461925347073627,-0.102513292069965,3,13.5866319444444,29.9
2.46666666666667,11.7919876983746,20.3119017984771,0.361859455942416,-0.100065891131211,3,13.5527777777778,29.9
2.5,11.7919725724773,20.3223282459493,0.264165752365872,-0.0976937035765433,3,13.5171875,29.9
2.53333333333333,11.7919620765536,20.3295073023809,0.167045838217551,-0.0971199141483209,3,13.4798611111111,29.9
2.56666666666667,11.7919561186257,20.3335162228996,0.0740836229871743,-0.092962215230377,3,13.4407986111111,29.9
2.6,11.7919546935322,20.3343594289591,0.0339444980547437,-0.0401391249324306,3,13.4,29.9
2.63333333333333,11.7919563622238,20.3332365085765,0.00401274088766051,-0.0299317571670832,3,13.3574652777778,29.9
2.66666666666667,11.7919563622238,20.3332365085765,0.00409702814756442,8.4287259903908e-05,5,13.3131944444444,29.9
2.7,11.7919563622238,20.3332365085765,0.0044447832213607,0.000347755073796282,5,13.2671875,29.9
2.73333333333333,11.7919563622238,20.3332365085765,0.00502172246763884,0.000576939246278139,5,13.2194444444444,29.9
2.76666666666667,11.7919563622238,20.3332365085765,0.00575110514009912,0.000729382672460276,5,13.1699652777778,29.9
2.8,11.7919563622238,20.3332365085765,0.00653076030695985,0.000779655166860735,5,13.11875,29.9
2.83333333333333,11.7919563622238,20.3332365085765,0.00724958693226045,0.000718826625300601,5,13.0657986111111,29.9
2.86666666666667,11.7919563622238,20.3332365085765,0.00780216979848274,0.000552582866222283,5,13.0111111111111,29.9
2.9,11.7919563622238,20.3332365085765,0.00810054410496903,0.000298374306486292,5,12.9546875,29.9
2.93333333333333,11.7919563622238,20.3332365085765,0.00808253941977496,-1.80046851940632e-05,5,12.8965277777778,29.9
2.96666666666667,11.7919563622238,20.3332365085765,0.00771650811522807,-0.000366031304546898,5,12.8366319444444,29.9
3,11.7919563622238,20.3332365085765,0.00700257041027738,-0.000713937704950689,5,12.775,29.9
3.03333333333333,11.7919563622238,20.3332365085765,0.00597077113657251,-0.00103179927370487,5,12.7116319444444,29.9
3.06666666666667,11.7919563622238,20.3332365085765,0.00467673323657121,-0.0012940379000013,5,12.6465277777778,29.9
3.1,11.7919563622238,20.3332365085765,0.0031955075237762,-0.001481225712795,5,12.5796875,29.9
3.13333333333333,11.7919563622238,20.3332365085765,0.0016143609795349,-0.0015811465442413,5,12.5111111111111,29.9
3.16666666666667,11.7919563622238,20.3332365085765,2.52250544323178e-05,-0.00158913592510259,5,12.4407986111111,29.9
3.2,11.7919563622238,20.3332365085765,0.00148254739934454,0.00145732234491222,5,12.36875,29.9
3.23333333333333,11.7919563622238,20.3332365085765,0.00282857936512689,0.00134603196578235,5,12.2949652777778,29.9
3.26666666666667,11.7919563622238,20.3332365085765,0.0039466197638418,0.00111804039871492,5,12.2194444444444,29.9
3.3,11.7919563622238,20.3332365085765,0.00478819180371904,0.000841572039877242,5,12.1421875,29.9
3.33333333333333,11.7919563622238,20.3332365085765,0.00532463010268578,0.000536438298966734,5,12.0631944444444,29.9
3.36666666666667,11.7919563622238,20.3332365085765,0.00554753036853124,0.000222900265845462,5,11.9824652777778,29.9
3.4,11.7919563622238,20.3332365085765,0.00546774887739984,-7.97814911314004e-05,5,11.9,29.9
3.43333333333333,11.7919563622238,20.3332365085765,0.0051131773175311,-0.00035457155986874,5,11.8157986111111,29.9
3.46666666666667,11.7919563622238,20.3332365085765,0.00452557900896959,-0.000587598308561504,5,11.7298611111111,29.9
3.5,11.7919563622238,20.3332365085765,0.00375680468879699,-0.000768774320172601,5,11.6421875,29.9
3.53333333333333,11.7919563622238,20.3332365085765,0.00286471162136411,-0.000892093067432888,5,11.5527777777778,29.9
3.56666666666667,11.7919563622238,20.3332365085765,0.00190909202723785,-0.000955619594126255,5,11.4616319444444,29.9
3.6,11.7919563622238,20.3332365085765,0.000947880145941226,-0.000961211881296625,5,11.36875,29.9
3.63333333333333,11.7919563622238,20.3332365085765,3.38567537199064e-05,-0.000914023392221319,5,11.2741319444444,29.9
3.66666666666667,11.7919563622238,20.3332365085765,0.000787989027618217,0.000754132273898311,5,11.1777777777778,29.9
3.7,11.7919563622238,20.3332365085765,0.00148234311746717,0.000694354089848953,5,11.0796875,29.9
3.73333333333333,11.7919563622238,20.3332365085765,0.00202465854717337,0.000542315429706202,5,10.9798611111111,29.9
3.76666666666667,11.7919563622238,20.3332365085765,0.00240147546370268,0.000376816916529311,5,10.8782986111111,29.9
3.8,11.7919563622238,20.3332365085765,0.00261003581013228,0.000208560346429592,5,10.775,29.9
3.83333333333333,11.7919563622238,20.3332365085765,0.00265729660160886,4.72607914765804e-05,5,10.6699652777778,29.9
3.86666666666667,11.7919563622238,20.3332365085765,0.00255847148332437,-9.88251182844854e-05,5,10.5631944444444,29.9
3.9,11.7919563622238,20.3332365085765,0.00233524443389194,-0.000223227049432433,5,10.4546875,29.9
3.93333333333333,11.7919563622238,20.3332365085765,0.00201380266541452,-0.000321441768477415,5,10.3444444444444,29.9
3.96666666666667,11.7919563622238,20.3332365085765,0.00162282920819822,-0.000390973457216304,5,10.2324652777778,29.9
4,11.7919563622238,20.3332365085765,0.0011915810559364,-0.000431248152261822,5,10.11875,29.9
4.03333333333333,11.7919563622238,20.3332365085765,0.00074815807714524,-0.000443422978791157,5,10.0032986111111,29.9
4.06666666666667,11.7919563622238,20.3332365085765,0.000318043280241706,-0.000430114796903534,5,9.88611111111111,29.9
4.1,11.7919563622238,20.3332365085765,7.70314716994581e-05,-0.000241011808542248,5,9.7671875,29.9
4.13333333333333,11.7919563622238,20.3332365085765,0.000419866652282956,0.000342835180583498,5,9.64652777777778,29.9
4.16666666666667,11.7919563622238,20.3332365085765,0.00069822028729169,0.000278353635008734,5,9.52413194444444,29.9
4.2,11.7919563622238,20.3332365085765,0.000904896066254614,0.000206675778962924,5,9.4,29.9
4.23333333333333,11.7919563622238,20.3332365085765,0.00103753101696336,0.000132634950708742,5,9.27413194444444,29.9
4.26666666666667,11.7919563622238,20.3332365085765,0.0010981326726506,6.06016556872473e-05,5,9.14652777777778,29.9
4.3,11.7919563622238,20.3332365085765,0.00109242417953745,-5.70849311315284e-06,5,9.0171875,29.9
4.33333333333333,11.7919563622238,20.3332365085765,0.00102905967644987,-6.33645030875781e-05,5,8.88611111111111,29.9
4.36666666666667,11.7919563622238,20.3332365085765,0.000918771910422086,-0.000110287766027787,5,8.75329861111111,29.9
4.4,11.7919563622238,20.3332365085765,0.000773510024499331,-0.000145261885922755,5,8.61875,29.9
4.43333333333333,11.7919563622238,20.3332365085765,0.000605618501730418,-0.000167891522768913,5,8.48246527777778,29.9
4.46666666666667,11.7919563622238,20.3332365085765,0.000427099185962171,-0.000178519315768247,5,8.34444444444444,29.9
4.5,11.7919563622238,20.3332365085765,0.00024898795575226,-0.000178111230209912,5,8.2046875,29.9
4.53333333333333,11.7919563622238,20.3332365085765,8.08667962262822e-05,-0.000168121159525977,5,8.06319444444444,29.9
4.56666666666667,11.7919563622238,20.3332365085765,6.94785912727695e-05,-1.13882049535127e-05,5,7.91996527777778,29.9
4.6,11.7919563622238,20.3332365085765,0.000196255279005121,0.000126776687732351,5,7.775,29.9
4.63333333333333,11.7919563622238,20.3332365085765,0.000295721820428233,9.94665414231118e-05,5,7.62829861111111,29.9
4.66666666666667,11.7919563622238,20.3332365085765,0.00036612415344097,7.04023330127377e-05,5,7.47986111111111,29.9
4.7,11.7919563622238,20.3332365085765,0.000407528732202976,4.14045787620053e-05,5,7.3296875,29.9
4.73333333333333,11.7919563622238,20.3332365085765,0.0004215761211822,1.40473889792245e-05,5,7.17777777777778,29.9
4.76666666666667,11.7919563622238,20.3332365085765,0.000411179699079711,-1.03964221024895e-05,5,7.02413194444444,29.9
4.8,11.7919563622238,20.3332365085765,0.000380193911803548,-3.09857872761624e-05,5,6.86875,29.9
4.83333333333333,11.7919563622238,20.3332365085765,0.000333074920060963,-4.71189917425848e-05,5,6.71163194444444,29.9
4.86666666666667,11.7919563622238,20.3332365085765,0.000274553794259095,-5.8521125801868e-05,5,6.55277777777778,29.9
4.9,11.7919563622238,20.3332365085765,0.000209338927637484,-6.52148666216117e-05,5,6.3921875,29.9
4.93333333333333,11.7919563622238,20.3332365085765,0.000141860380863826,-6.74785467736578e-05,5,6.22986111111111,29.9
4.96666666666667,11.7919563622238,20.3332365085765,0.000174677163698215,3.28167828343888e-05,5,6.06579861111111,29.9
5,11.791955633072,20.3338446146828,0.0344275262091568,0.0342528490454585,4,5.9,29.9
5.03333333333333,11.7919532688855,20.3358163252203,0.0837975221875695,0.0493699959784128,4,5.9,29.9
5.06666666666667,11.7919489093074,20.3394521745035,0.134228386826926,0.0504308646393564,4,5.9,29.9
5.1,11.7919425516024,20.344754443843,0.183752807303374,0.0495244204764486,4,5.9,29.9
5.13333333333333,11.7919342364274,20.3516892256708,0.232163132838164,0.0484103255347896,4,5.9,29.9
5.16666666666667,11.7919240104979,20.3602175597889,0.279376624975975,0.0472134921378105,4,5.9,29.9
5.2,11.79191192087,20.3703002017427,0.325440326296898,0.0460637013209237,4,5.9,29.9
5.23333333333333,11.7918980123072,20.3818998192733,0.370408668632079,0.0449683423351802,4,5.9,29.9
5.26666666666667,11.7918823276003,20.3949807251136,0.414325357571335,0.0439166889392566,4,5.9,29.9
5.3,11.7918649079491,20.4095085589938,0.457226507079927,0.0429011495085918,4,5.9,29.9
5.33333333333333,11.7918457933535,20.4254499614988,0.49913279838344,0.0419062913035135,4,5.9,29.9
5.36666666666667,11.7918250235729,20.4427717734819,0.540040829599622,0.0409080312161816,4,5.9,29.9
5.4,11.7918026385054,20.461440720352,0.579951372536045,0.0399105429364226,4,5.9,29.9
5.43333333333333,11.7917786779086,20.4814236446258,0.618872009030805,0.0389206364947602,4,5.9,29.9
5.46666666666667,11.7917531811648,20.5026877018269,0.656814967519858,0.0379429584890534,4,5.9,29.9
5.5,11.7917261871085,20.5252005043195,0.693796836700846,0.0369818691809879,4,5.9,29.9
5.53333333333333,11.7916977334827,20.5489305747116,0.729861490153462,0.036064653452616,4,5.9,29.9
5.56666666666667,11.791667855689,20.5738483885191,0.765073478775131,0.0352119886216685,4,5.9,29.9
5.6,11.7916365867351,20.5999264175724,0.799486069097401,0.0344125903222701,4,5.9,29.9
5.63333333333333,11.7916039576885,20.6271387517126,0.833142469045951,0.0336563999485501,4,5.9,29.9
5.66666666666667,11.7915699972737,20.6554614351427,0.86616243951073,0.0330199704647796,4,5.9,29.9
5.7,11.7915347193016,20.6848829496134,0.899258238890071,0.0330957993793404,4,5.9,29.9
5.73333333333333,11.7914980947917,20.7154274646501,0.93381481943086,0.0345565805407897,4,5.9,29.9
5.76666666666667,11.7914600312581,20.7471721125305,0.971550797243957,0.0377359778130961,4,5.9,29.9
5.8,11.7914203692647,20.7802498616991,1.01403217940192,0.0424813821579599,4,5.9,29.9
5.83333333333333,11.7913788935285,20.8148402562561,1.06248284106898,0.0484506616670599,4,5.9,29.9
5.86666666666667,11.791335345798,20.8511586755248,1.11784963564855,0.0553667945795733,4,5.9,29.9
5.9,11.7912894344219,20.8894483541946,1.1808535563465,0.0630039206979542,4,5.9,29.9
5.93333333333333,11.7912408448039,20.9299716627792,1.25190599623007,0.0710524398835657,4,5.9,29.9
5.96666666666667,11.7911892560418,20.9729997640197,1.33114997860745,0.0792439823773836,4,5.9,29.9
6,11.7911343623847,21.0188054931619,1.41853928043187,0.0873893018244138,4,5.9,29.9
6.03333333333333,11.7910758689922,21.0676561103834,1.51376902014533,0.0952297397134676,4,5.9,29.9
6.06666666666667,11.791013497778,21.1198038694851,1.61626281842008,0.102493798274745,4,5.9,29.9
6.1,11.7909469940888,21.1754793213412,1.72530921531381,0.109046396893731,4,5.9,29.9
6.13333333333333,11.7908761297215,21.2348877658288,1.84010933037377,0.114800115059954,4,5.9,29.9
6.16666666666667,11.7908007047597,21.2982068994471,1.95980449729417,0.119695166920407,4,5.9,29.9
6.2,11.7907205511365,21.3655833438862,2.08336173008975,0.123557232795579,4,5.9,29.9
6.23333333333333,11.7906355390291,21.4371272146679,2.20967747781252,0.12631574772277,4,5.9,29.9
6.26666666666667,11.7905455752229,21.5129138321398,2.33777611633514,0.128098638522617,4,5.9,29.9
6.3,11.7904505981183,21.592988671149,2.46685190148052,0.129075785145385,4,5.9,29.9
6.33333333333333,11.7903505713922,21.6773738057604,2.59630860935007,0.129456707869541,4,5.9,29.9
6.36666666666667,11.7902454764442,21.7660756416631,2.72583219014934,0.129523580799274,4,5.9,29.9
6.4,11.7901353007347,21.8590962060741,2.85544485738944,0.129612667240096,4,5.9,29.9
6.43333333333333,11.7900200304568,21.9564406611847,2.98528874113711,0.129843883747673,4,5.9,29.9
6.46666666666667,11.789899649298,22.0581193668164,3.11551699109458,0.130228249957468,4,5.9,29.9
