Time,x_ego,y_ego,velocity,acceleration,action,x_ped,y_ped
0,11.8,15.9,5,0,1,15.5,29.9
0.0333333333333333,11.8000054689588,16.0666076888318,4.99642263600772,-0.00357736399227804,1,15.3694444444444,29.9
0.0666666666666667,11.8000405538994,16.2330926526577,4.99264782867991,-0.00377480732780988,1,15.2444444444444,29.9
0.1,11.8001261188274,16.3994492926121,4.98873227005768,-0.0039155586222348,1,15.125,29.9
0.133333333333333,11.8002741845926,16.565673604583,4.98471646188001,-0.00401580817766867,1,15.0111111111111,29.9
0.166666666666667,11.8004894577091,16.7317627250837,4.98062922532514,-0.0040872365548692,1,14.9027777777778,29.9
0.2,11.8007712067914,16.8977146081986,4.9764910630369,-0.00413816228824349,1,14.8,29.9
0.233333333333333,11.801115094239,17.0635277961989,4.97231661135928,-0.00417445167761876,1,14.7027777777778,29.9
0.266666666666667,11.8015147286884,17.2292012562059,4.96811638025766,-0.00420023110161694,1,14.6111111111111,29.9
0.3,11.8019622645469,17.3947342636195,4.96389786968506,-0.00421851057259559,1,14.525,29.9
0.333333333333333,11.8024478203525,17.5601263195405,4.95966653990616,-0.00423132977890095,1,14.4444444444444,29.9
0.366666666666667,11.8029617560379,17.725377088403,4.95542637484806,-0.00424016505809988,1,14.3694444444444,29.9
0.4,11.8034917501623,17.8904863576206,4.95117997300453,-0.00424640184353109,1,14.3,29.9
0.433333333333333,11.8040171010335,18.0554540167305,4.94692922515515,-0.00425074784938584,1,14.2361111111111,29.9
0.466666666666667,11.8045076114119,18.2202800402223,4.94267572940332,-0.0042534957518221,1,14.1777777777778,29.9
0.5,11.8049190359506,18.3849644784319,4.93842173501457,-0.00425399438875651,1,14.125,29.9
0.533333333333333,11.8052037593512,18.5495074143914,4.93417021714294,-0.00425151787162914,1,14.0777777777778,29.9
0.566666666666667,11.8053175885052,18.7139089167523,4.92992387192902,-0.0042463452139172,1,14.0361111111111,29.9
0.6,11.8052279568629,18.8781689914853,4.92568377938194,-0.0042400925470778,1,14,29.9
0.633333333333333,11.8049209805087,19.0422875553351,4.92144861320515,-0.00423516617678921,1,13.9694444444444,29.9
0.666666666666667,11.8044005466867,19.2062644534787,4.91721559571739,-0.00423301748776872,1,13.9444444444444,29.9
0.7,11.803682988984,19.3700995040615,4.91298196766133,-0.00423362805605443,1,13.925,29.9
0.733333333333333,11.8027917589187,19.5337925437787,4.90874589234307,-0.00423607531826242,1,13.9111111111111,29.9
0.766666666666667,11.8017531458691,19.6973434597742,4.90450670592169,-0.00423918642137533,1,13.9027777777778,29.9
0.8,11.8005931270686,19.8607522028563,4.90026471369567,-0.00424199222602173,1,13.9,29.9
0.833333333333333,11.7993352319081,20.0240187840933,4.89602080508722,-0.00424390860845225,1,13.9,29.9
0.866666666666667,11.7979994313558,20.1870564268983,4.88656624295388,-0.00945456213333706,1,13.9,29.9
0.9,11.796601842741,20.3496054575649,4.86673663333999,-0.0198296096138888,3,13.9,29.9
0.933333333333333,11.7951542656624,20.5114066240351,4.84172280051635,-0.0250138328236407,3,13.9,29.9
0.966666666666667,11.7936639726215,20.6723159005619,4.8132491202914,-0.0284736802249492,3,13.9,29.9
1,11.792134835535,20.8321028293478,4.77440732792082,-0.0388417923705848,3,13.9,29.9
1.03333333333333,11.7905679470272,20.9904792354371,4.72864432478655,-0.0457630031342662,3,13.9,29.9
1.06666666666667,11.7889623339735,21.14715700422,4.67251836034639,-0.0561259644401604,3,13.9,29.9
1.1,11.7873167691475,21.301704221018,4.60084426890904,-0.0716740914373544,3,13.9,29.9
1.13333333333333,11.785629951394,21.4537177800609,4.52053608184639,-0.080308187062653,3,13.9,29.9
1.16666666666667,11.7838999413223,21.6030540988537,4.44025105783912,-0.0802850240072699,3,13.9,29.9
1.2,11.7821258352663,21.7497139232487,4.35999067875026,-0.0802603790888572,3,13.9,29.9
1.23333333333333,11.7803123607031,21.893698095267,4.27975495838335,-0.0802357203669075,3,13.9,29.9
1.26666666666667,11.7784738821282,22.0350940552647,4.20473155119648,-0.0750234071868663,3,13.9,29.9
1.3,11.7766309909022,22.1740758060764,4.13491964365611,-0.0698119075403731,3,13.9,29.9
1.33333333333333,11.7748095378932,22.3109042538733,4.07552809645834,-0.059391547197774,3,13.9,29.9
1.36666666666667,11.7730393760362,22.4460132828926,4.03172235287586,-0.0438057435824737,3,13.9,29.9
1.4,11.7713486688538,22.5799228193323,4.00350137557589,-0.0282209772999744,3,13.9,29.9
1.43333333333333,11.7697639128409,22.712979721235,3.98048758862485,-0.0230137869510392,3,13.9,29.9
1.46666666666667,11.7683061944582,22.8452712549588,3.95749215237606,-0.0229954362487952,3,13.9,29.9
1.5,11.7669891390493,22.9767693353892,3.93279218902631,-0.0246999633497467,3,13.9,29.9
1.53333333333333,11.765819896771,23.1072437176252,3.89598839644617,-0.0368037925801343,3,13.9,29.9
1.56666666666667,11.764796629231,23.2362910905545,3.8471020464717,-0.0488863499744721,3,13.9,29.9
1.6,11.7639069214608,23.3635371367437,3.78785484563966,-0.0592472008320422,3,13.9,29.9
1.63333333333333,11.7631332603657,23.4884055413812,3.7044044726789,-0.083450372960761,3,13.9,29.9
1.66666666666667,11.7624548165845,23.6103487961094,3.61231838839189,-0.092086084287009,3,13.9,29.9
1.7,11.7618495534254,23.7291654307736,3.51678787152569,-0.0955305168661975,3,13.9,29.9
1.73333333333333,11.7613014717652,23.8445967401646,3.40918373637572,-0.107604135149977,3,13.9,29.9
1.76666666666667,11.7608025222529,23.9562686593703,3.29121092956209,-0.117972806813627,3,13.9,29.9
1.8,11.7603548113703,24.0638073194798,3.16117437132403,-0.130036558238057,3,13.9,29.9
1.83333333333333,11.7599718272895,24.1667529375747,3.01561337658102,-0.14556099474301,3,13.8991319444444,29.9
1.86666666666667,11.7596715225228,24.2646455125435,2.85797762471296,-0.157635751868056,3,13.8965277777778,29.9
1.9,11.7594692090671,24.3572558515326,2.69867000825591,-0.159307616457049,3,13.8921875,29.9
1.93333333333333,11.759374808125,24.4445277522599,2.53767143032168,-0.160998577934231,3,13.8861111111111,29.9
1.96666666666667,11.7593928323847,24.5263472597296,2.37153852876902,-0.166132901552664,3,13.8782986111111,29.9
2,11.7595192175162,24.6026295371516,2.20546843539931,-0.166070093369711,3,13.86875,29.9
2.03333333333333,11.7597419090827,24.6733545362407,2.03839084082449,-0.167077594574816,3,13.8574652777778,29.9
2.06666666666667,11.7600434239327,24.7385446063219,1.87359354288357,-0.164797297940928,3,13.8444444444444,29.9
2.1,11.7604031809433,24.7982591867113,1.70993657069367,-0.163656972189893,3,13.8296875,29.9
2.13333333333333,11.7607996648921,24.8525675481761,1.54925319205435,-0.160683378639318,3,13.8131944444444,29.9
2.16666666666667,11.7612120363813,24.901540901457,1.38985024735724,-0.159402944697117,3,13.7949652777778,29.9
2.2,11.7616213119484,24.9452515320188,1.23348793344617,-0.156362313911062,3,13.775,29.9
2.23333333333333,11.7620108847717,24.9838299529117,1.08189464561161,-0.15159328783456,3,13.7532986111111,29.9
2.26666666666667,11.7623671686783,25.0174067692286,0.933390621670675,-0.14850402394094,3,13.7298611111111,29.9
2.3,11.7626797125405,25.0460878873661,0.788133133089745,-0.145257488580931,3,13.7046875,29.9
2.33333333333333,11.7629406937304,25.0700096306943,0.64777396417803,-0.140359168911714,3,13.6777777777778,29.9
2.36666666666667,11.7631446794527,25.0893331890098,0.512234353967574,-0.135539610210457,3,13.6491319444444,29.9
2.4,11.7632884235684,25.1041909555892,0.379848093661142,-0.132386260306432,3,13.61875,29.9
2.43333333333333,11.7633703904727,25.1146870388664,0.250593253254052,-0.12925484040709,3,13.5866319444444,29.9
2.46666666666667,11.7633902385746,25.1208941939925,0.122783385847648,-0.127809867406405,3,13.5527777777778,29.9
2.5,11.763348261329,25.122858230924,0.0158978734424355,-0.106885512405212,3,13.5171875,29.9
2.53333333333333,11.7632420478264,25.1216130246567,0.0549855710110307,0.0390876975685952,4,13.4798611111111,29.9
2.56666666666667,11.7630665862556,25.1198187338491,0.0109096198020846,-0.0440759512089461,3,13.4407986111111,29.9
2.6,11.7630665862556,25.1198187338491,0.011437825239983,0.000528205437898407,5,13.4,29.9
2.63333333333333,11.7630665862556,25.1198187338491,0.0119915276083978,0.000553702368414823,5,13.3574652777778,29.9
2.66666666666667,11.7630665862556,25.1198187338491,0.0125163898084257,0.000524862200027872,5,13.3131944444444,29.9
2.7,11.7630665862556,25.1198187338491,0.0129292557007278,0.000412865892302178,5,13.2671875,29.9
2.73333333333333,11.7630665862556,25.1198187338491,0.0131368806693125,0.00020762496858469,5,13.2194444444444,29.9
2.76666666666667,11.7630665862556,25.1198187338491,0.0130524774211904,-8.44032481221568e-05,5,13.1699652777778,29.9
2.8,11.7630665862556,25.1198187338491,0.0126088917994477,-0.000443585621742704,5,13.11875,29.9
2.83333333333333,11.7630665862556,25.1198187338491,0.0117677196465366,-0.000841172152911081,5,13.0657986111111,29.9
2.86666666666667,11.7630665862556,25.1198187338491,0.0105241414046572,-0.00124357824187943,5,13.0111111111111,29.9
2.9,11.7630665862556,25.1198187338491,0.00890765572315921,-0.00161648568149794,5,12.9546875,29.9
2.93333333333333,11.7630665862556,25.1198187338491,0.00697921614110568,-0.00192843958205353,5,12.8965277777778,29.9
2.96666666666667,11.7630665862556,25.1198187338491,0.00482550478621529,-0.00215371135489039,5,12.8366319444444,29.9
3,11.7630665862556,25.1198187338491,0.00255121160337497,-0.00227429318284032,5,12.775,29.9
3.03333333333333,11.7630665862556,25.1198187338491,0.000270231988211858,-0.00228097961516311,5,12.7116319444444,29.9
3.06666666666667,11.7630665862556,25.1198187338491,0.00190333919601733,0.00163310720780547,5,12.6465277777778,29.9
3.1,11.7630665862556,25.1198187338491,0.00386363834388426,0.00196029914786693,5,12.5796875,29.9
3.13333333333333,11.7630665862556,25.1198187338491,0.00552025561265847,0.00165661726877421,5,12.5111111111111,29.9
3.16666666666667,11.7630665862556,25.1198187338491,0.00680379085112412,0.00128353523846565,5,12.4407986111111,29.9
3.2,11.7630665862556,25.1198187338491,0.00766947049514531,0.000865679644021186,5,12.36875,29.9
3.23333333333333,11.7630665862556,25.1198187338491,0.00809873460178222,0.000429264106636905,5,12.2949652777778,29.9
3.26666666666667,11.7630665862556,25.1198187338491,0.00809886766478144,1.33062999219807e-07,5,12.2194444444444,29.9
3.3,11.7630665862556,25.1198187338491,0.0077008844563631,-0.000397983208418335,5,12.1421875,29.9
3.33333333333333,11.7630665862556,25.1198187338491,0.00695598654328742,-0.000744897913075683,5,12.0631944444444,29.9
3.36666666666667,11.7630665862556,25.1198187338491,0.00593097331403878,-0.00102501322924864,5,11.9824652777778,29.9
3.4,11.7630665862556,25.1198187338491,0.00470302334092045,-0.00122794997311833,5,11.9,29.9
3.43333333333333,11.7630665862556,25.1198187338491,0.00335426027144827,-0.00134876306947218,5,11.8157986111111,29.9
3.46666666666667,11.7630665862556,25.1198187338491,0.00196648679294678,-0.00138777347850149,5,11.7298611111111,29.9
3.5,11.7630665862556,25.1198187338491,0.000616416530723907,-0.00135007026222288,5,11.6421875,29.9
3.53333333333333,11.7630665862556,25.1198187338491,0.00062833621543092,1.19196847070135e-05,5,11.5527777777778,29.9
3.56666666666667,11.7630665862556,25.1198187338491,0.0017123282654872,0.00108399205005628,5,11.4616319444444,29.9
3.6,11.7630665862556,25.1198187338491,0.00259432220482912,0.000881993939341925,5,11.36875,29.9
3.63333333333333,11.7630665862556,25.1198187338491,0.00324826391457181,0.000653941709742682,5,11.2741319444444,29.9
3.66666666666667,11.7630665862556,25.1198187338491,0.00366325360019962,0.000414989685627811,5,11.1777777777778,29.9
3.7,11.7630665862556,25.1198187338491,0.00384261969790996,0.000179366097710339,5,11.0796875,29.9
3.73333333333333,11.7630665862556,25.1198187338491,0.0038022495949565,-4.03701029534596e-05,5,10.9798611111111,29.9
3.76666666666667,11.7630665862556,25.1198187338491,0.00356836032269546,-0.000233889272261041,5,10.8782986111111,29.9
3.8,11.7630665862556,25.1198187338491,0.00317490630973564,-0.000393454012959811,5,10.775,29.9
3.83333333333333,11.7630665862556,25.1198187338491,0.00266082095991224,-0.000514085349823407,5,10.6699652777778,29.9
3.86666666666667,11.7630665862556,25.1198187338491,0.002067276081967,-0.000593544877945235,5,10.5631944444444,29.9
3.9,11.7630665862556,25.1198187338491,0.00143512044458426,-0.000632155637382739,5,10.4546875,29.9
3.93333333333333,11.7630665862556,25.1198187338491,0.000802628690577344,-0.000632491754006918,5,10.3444444444444,29.9
3.96666666666667,11.7630665862556,25.1198187338491,0.00020365735264938,-0.000598971337927965,5,10.2324652777778,29.9
4,11.7630665862556,25.1198187338491,0.000333731486304435,0.000130074133655055,5,10.11875,29.9
4.03333333333333,11.7630665862556,25.1198187338491,0.000788153765181699,0.000454422278877264,5,10.0032986111111,29.9
4.06666666666667,11.7630665862556,25.1198187338491,0.00114530165814379,0.00035714789296209,5,9.88611111111111,29.9
4.1,11.7630665862556,25.1198187338491,0.00139789183823985,0.000252590180096062,5,9.7671875,29.9
4.13333333333333,11.7630665862556,25.1198187338491,0.00154522152430401,0.000147329686064161,5,9.64652777777778,29.9
4.16666666666667,11.7630665862556,25.1198187338491,0.00159240605810915,4.71845338051364e-05,5,9.52413194444444,29.9
4.2,11.7630665862556,25.1198187338491,0.00154938130352385,-4.30247545853003e-05,5,9.4,29.9
4.23333333333333,11.7630665862556,25.1198187338491,0.00142975749811251,-0.000119623805411341,5,9.27413194444444,29.9
4.26666666666667,11.7630665862556,25.1198187338491,0.00124960893050893,-0.000180148567603577,5,9.14652777777778,29.9
4.3,11.7630665862556,25.1198187338491,0.00102627683581696,-0.000223332094691969,5,9.0171875,29.9
4.33333333333333,11.7630665862556,25.1198187338491,0.000777252239659354,-0.000249024596157606,5,8.88611111111111,29.9
4.36666666666667,11.7630665862556,25.1198187338491,0.000519192266264436,-0.000258059973394918,5,8.75329861111111,29.9
4.4,11.7630665862556,25.1198187338491,0.000267108786818517,-0.000252083479445919,5,8.61875,29.9
4.43333333333333,11.7630665862556,25.1198187338491,3.37532839908062e-05,-0.000233355502827711,5,8.48246527777778,29.9
4.46666666666667,11.7630665862556,25.1198187338491,0.000170792612738295,0.000137039328747488,5,8.34444444444444,29.9
4.5,11.7630665862556,25.1198187338491,0.00033932453117275,0.000168531918434455,5,8.2046875,29.9
4.53333333333333,11.7630665862556,25.1198187338491,0.00046753542863489,0.000128210897462141,5,8.06319444444444,29.9
4.56666666666667,11.7630665862556,25.1198187338491,0.000553871840279706,8.63364116448162e-05,5,7.91996527777778,29.9
4.6,11.7630665862556,25.1198187338491,0.000599256051830801,4.53842115510949e-05,5,7.775,29.9
4.63333333333333,11.7630665862556,25.1198187338491,0.000606707625434689,7.45157360388759e-06,5,7.62829861111111,29.9
4.66666666666667,11.7630665862556,25.1198187338491,0.000580898961112235,-2.5808664322454e-05,5,7.47986111111111,29.9
4.7,11.7630665862556,25.1198187338491,0.000527678661995625,-5.32202991166096e-05,5,7.3296875,29.9
4.73333333333333,11.7630665862556,25.1198187338491,0.000453593739726882,-7.40849222687429e-05,5,7.17777777777778,29.9
4.76666666666667,11.7630665862556,25.1198187338491,0.000365437555842212,-8.81561838846702e-05,5,7.02413194444444,29.9
4.8,11.7630665862556,25.1198187338491,0.0002698452802047,-9.55922756375117e-05,5,6.86875,29.9
4.83333333333333,11.7630665862556,25.1198187338491,0.000172952989470402,-9.6892290734298e-05,5,6.71163194444444,29.9
4.86666666666667,11.7630665862556,25.1198187338491,8.01307294826032e-05,-9.28222599877992e-05,5,6.55277777777778,29.9
4.9,11.7630665862556,25.1198187338491,4.20572057457538e-06,-7.59250089080278e-05,5,6.3921875,29.9
4.93333333333333,11.7630665862556,25.1198187338491,7.67047256681149e-05,7.24990050935395e-05,5,6.22986111111111,29.9
4.96666666666667,11.7630665862556,25.1198187338491,0.000135115012575339,5.84102869072241e-05,5,6.06579861111111,29.9
5,11.7630665862556,25.1198187338491,0.000178256407350888,4.31413947755493e-05,5,5.9,29.9
5.03333333333333,11.7630665862556,25.1198187338491,0.000205935803042985,2.76793956920966e-05,5,5.9,29.9
5.06666666666667,11.7630665862556,25.1198187338491,0.000218820638020285,1.28848349773002e-05,5,5.9,29.9
5.1,11.7630665862556,25.1198187338491,0.000218282820669156,-5.37817351128943e-07,5,5.9,29.9
5.13333333333333,11.7630665862556,25.1198187338491,0.000206225869490951,-1.20569511782056e-05,5,5.9,29.9
5.16666666666667,11.7630665862556,25.1198187338491,0.000184907175189416,-2.13186943015348e-05,5,5.9,29.9
5.2,11.7630665862556,25.1198187338491,0.000156765881390952,-2.81412937984638e-05,5,5.9,29.9
5.23333333333333,11.7630665862556,25.1198187338491,0.000124265081438501,-3.2500799952451e-05,5,5.9,29.9
5.26666666666667,11.7630665862556,25.1198187338491,8.97549979501337e-05,-3.45100834883673e-05,5,5.9,29.9
5.3,11.7630665862556,25.1198187338491,5.53616976822404e-05,-3.43933002678933e-05,5,5.9,29.9
5.33333333333333,11.7630665862556,25.1198187338491,2.29038281360612e-05,-3.24578695461791e-05,5,5.9,29.9
5.36666666666667,11.7630665862556,25.1198187338491,6.16204606496912e-06,-1.67417820710921e-05,5,5.9,29.9
5.4,11.7630665862556,25.1198187338491,3.07685949921352e-05,2.46065489271661e-05,5,5.9,29.9
5.43333333333333,11.7630665862556,25.1198187338491,5.02398163455837e-05,1.94712213534485e-05,5,5.9,29.9
5.46666666666667,11.7630665862556,25.1198187338491,6.42715533657304e-05,1.40317370201467e-05,5,5.9,29.9
5.5,11.7630665862556,25.1198187338491,7.28946092531665e-05,8.62305588743608e-06,5,5.9,29.9
5.53333333333333,11.7630665862556,25.1198187338491,7.64249855555205e-05,3.530376302354e-06,5,5.9,29.9
5.56666666666667,11.7630665862556,25.1198187338491,7.54058247266546e-05,-1.01916082886593e-06,5,5.9,29.9
5.6,11.7630665862556,25.1198187338491,0.000169157857486051,9.37520327593961e-05,5,5.9,29.9
5.63333333333333,11.7630652329812,25.1202620350769,0.0234476807719637,0.0232785229144776,4,5.9,29.9
5.66666666666667,11.7630614713006,25.1214943596214,0.0504506394568145,0.0270029586848508,4,5.9,29.9
5.7,11.7630546370533,25.1237357401419,0.0839643008669861,0.0335136614101716,4,5.9,29.9
5.73333333333333,11.7630435692853,25.1273731611881,0.134177499343796,0.0502131984768094,4,5.9,29.9
5.76666666666667,11.7630275083787,25.1326708507976,0.183546000992097,0.0493685016483017,4,5.9,29.9
5.8,11.7630066429127,25.1395966850873,0.231845880392976,0.048299879400879,4,5.9,29.9
5.83333333333333,11.7629812339703,25.148113019668,0.278982068309033,0.0471361879160568,4,5.9,29.9
5.86666666666667,11.7629516093985,25.1581815510075,0.324992301476884,0.0460102331678509,4,5.9,29.9
5.9,11.7629181625565,25.1697656276432,0.369924874699466,0.0449325732225817,4,5.9,29.9
5.93333333333333,11.7628813550237,25.1828300596394,0.41381898338164,0.0438941086821744,4,5.9,29.9
5.96666666666667,11.7628417155226,25.1973408498097,0.456707335994854,0.0428883526132137,4,5.9,29.9
6,11.7627998346731,25.2132649042121,0.498608216521539,0.0419008805266852,4,5.9,29.9
6.03333333333333,11.7627563569298,25.2305692683818,0.539516432882125,0.0409082163605862,4,5.9,29.9
6.06666666666667,11.7627119670433,25.2492208189314,0.579431061146729,0.0399146282646037,4,5.9,29.9
6.1,11.7626673524012,25.2691865069001,0.618358398514326,0.0389273373675975,4,5.9,29.9
6.13333333333333,11.7626231016279,25.2904335646932,0.656309734140288,0.0379513356259618,4,5.9,29.9
6.16666666666667,11.7625796465971,25.3129296577794,0.693300924233166,0.036991190092878,4,5.9,29.9
6.2,11.7625372430026,25.3366433324209,0.72937485985574,0.0360739356225742,4,5.9,29.9
6.23333333333333,11.7624960144116,25.3615450663118,0.764595940688828,0.0352210808330883,4,5.9,29.9
6.26666666666667,11.7624558844423,25.3876073296832,0.799017463151143,0.0344215224623147,4,5.9,29.9
6.3,11.7624166242576,25.4148042085492,0.832682683609393,0.0336652204582502,4,5.9,29.9
6.33333333333333,11.7623777838056,25.4431111145817,0.86562745188332,0.032944768273927,4,5.9,29.9
6.36666666666667,11.7623388115846,25.4725046746155,0.897896846423005,0.0322693945396847,4,5.9,29.9
6.4,11.7622991059649,25.5029656833724,0.929758466050336,0.0318616196273309,4,5.9,29.9
