Time,x_ego,y_ego,velocity,acceleration,action,x_ped,y_ped
0,11.8,15.9,7,0,1,15.5,29.9
0.0333333333333333,11.8,16.1332703793943,6.99615577953002,-0.00384422046998356,1,15.4502170138889,29.9
0.0666666666666667,11.8,16.3664065988113,6.99196947109348,-0.00418630843653833,1,15.4008680555556,29.9
0.1,11.8,16.5994007552791,6.98769498718995,-0.00427448390352669,1,15.351953125,29.9
0.133333333333333,11.8,16.8322537852842,6.9834976545359,-0.00419733265404787,1,15.3034722222222,29.9
0.166666666666667,11.8,17.0649678802301,6.97935585456763,-0.00414179996826913,1,15.2554253472222,29.9
0.2,11.8,17.2975446186632,6.97525409491249,-0.00410175965514537,1,15.2078125,29.9
0.233333333333333,11.8,17.5299851399444,6.97118127319767,-0.00407282171482137,1,15.1606336805556,29.9
0.266666666666667,11.8,17.7622902687052,6.96712943294736,-0.00405184025031069,1,15.1138888888889,29.9
0.3,11.7999991592725,17.9944606040332,6.96309287248123,-0.00403656046612966,1,15.067578125,29.9
0.333333333333333,11.7999938967428,18.226496583376,6.95906750828323,-0.00402536419800104,1,15.0217013888889,29.9
0.366666666666667,11.7999813597314,18.4583985282973,6.95505041465937,-0.00401709362385727,1,14.9762586805556,29.9
0.4,11.7999600663457,18.6901666772492,6.95103949249884,-0.004010922160532,1,14.93125,29.9
0.433333333333333,11.7999294988485,18.9218012090875,6.94703323521513,-0.00400625728370763,1,14.8866753472222,29.9
0.466666666666667,11.7998897378748,19.1533022599661,6.94303056230352,-0.00400267291161338,1,14.8425347222222,29.9
0.5,11.7998411812404,19.3846699354691,6.93903069977534,-0.00399986252817985,1,14.798828125,29.9
0.533333333333333,11.799785194784,19.6159043194007,6.93503308328815,-0.00399761648718755,1,14.7555555555556,29.9
0.566666666666667,11.7997259014371,19.8470054803601,6.93103731449068,-0.00399576879746899,1,14.7127170138889,29.9
0.6,11.7996667202345,20.0779734759632,6.92704312097934,-0.00399419351134078,1,14.6703125,29.9
0.633333333333333,11.7996106380916,20.3088083559132,6.92305030120109,-0.00399281977824995,1,14.6283420138889,29.9
0.666666666666667,11.7995623279164,20.5395101644901,6.91905871788671,-0.00399158331437999,1,14.5868055555556,29.9
0.7,11.7995250262202,20.7700789415105,6.91506827392637,-0.00399044396034132,1,14.545703125,29.9
0.733333333333333,11.7995001805984,21.0005147232418,6.91107889090858,-0.00398938301778351,1,14.5050347222222,29.9
0.766666666666667,11.7994880435604,21.2308175433344,6.9070905073218,-0.00398838358678422,1,14.4648003472222,29.9
0.8,11.7994881443875,21.4609870703007,6.90308127879947,-0.00400922852232632,1,14.425,29.9
0.833333333333333,11.799499665569,21.6906193230757,6.87485454616407,-0.0282267326354013,3,14.3856336805556,29.9
0.866666666666667,11.7995216366514,21.9187628643692,6.81375938140962,-0.0610951647544544,3,14.3467013888889,29.9
0.9,11.7995529792938,22.144235688114,6.71461253331696,-0.0991468480926594,3,14.308203125,29.9
0.933333333333333,11.7995917281943,22.3658850381734,6.58435209738057,-0.130260435936388,3,14.2701388888889,29.9
0.966666666666667,11.7996332450597,22.5827890549842,6.4298939935917,-0.154458103788867,3,14.2325086805556,29.9
1,11.7996736266731,22.7942563902268,6.25815347133742,-0.17174052225428,3,14.1953125,29.9
1.03333333333333,11.7997111520076,22.9997687717231,6.07260061075732,-0.185552860580107,3,14.1585503472222,29.9
1.06666666666667,11.799747677931,23.1988371015452,5.87151657232338,-0.201084038433939,3,14.1222222222222,29.9
1.1,11.7997858918438,23.3909436772417,5.65490433773364,-0.216612234589737,3,14.086328125,29.9
1.13333333333333,11.7998300098066,23.5757438289036,5.43314263110272,-0.221761706630922,3,14.0508680555556,29.9
1.16666666666667,11.7998831293814,23.7531523589484,5.21142025171645,-0.221722379386273,3,14.0158420138889,29.9
1.2,11.7999467842069,23.9231705664615,4.98973659634057,-0.221683655375872,3,13.98125,29.9
1.23333333333333,11.80002192861,24.0857997586709,4.76809060706151,-0.221645989279065,3,13.9470920138889,29.9
1.26666666666667,11.8001112500956,24.2410412412339,4.54648115749573,-0.221609449565778,3,13.9133680555556,29.9
1.3,11.8002182260314,24.3888963114438,4.32490736343328,-0.221573794062448,3,13.9133680555556,29.9
1.33333333333333,11.800344425973,24.5293653378689,4.10328907888363,-0.221618284549653,3,13.9133680555556,29.9
1.36666666666667,11.8004892390141,24.662445691359,3.88158576798067,-0.221703310902962,3,13.9133680555556,29.9
1.4,11.8006502999183,24.7881354169983,3.65984396647141,-0.221741801509261,3,13.9133680555556,29.9
1.43333333333333,11.8008239323456,24.906433842267,3.43809746279458,-0.221746503676825,3,13.9133680555556,29.9
1.46666666666667,11.8010055869788,25.0173412072571,3.21637068567391,-0.221726777120673,3,13.9133680555556,29.9
1.5,11.8011902605848,25.1208583994989,2.99468104581401,-0.221689639859899,3,13.9133680555556,29.9
1.53333333333333,11.8013728847195,25.2169867636923,2.77304059830807,-0.221640447505944,3,13.9133680555556,29.9
1.56666666666667,11.8015486724222,25.3057279650975,2.55145728724002,-0.221583311068042,3,13.9133680555556,29.9
1.6,11.8017134143506,25.3870838914043,2.32993594383764,-0.221521343402381,3,13.9133680555556,29.9
1.63333333333333,11.8018638000312,25.461057028665,2.10858173696172,-0.221354206875924,3,13.9133680555556,29.9
1.66666666666667,11.8019976678983,25.527673789215,1.88893496635773,-0.219646770603988,3,13.9133680555556,29.9
1.7,11.8021139369345,25.5870184571976,1.67238288280942,-0.216552083548311,3,13.9133680555556,29.9
1.73333333333333,11.8022123683311,25.6392018233687,1.45930733337653,-0.213075549432892,3,13.9133680555556,29.9
1.76666666666667,11.8022933116131,25.6843432545885,1.24989864822362,-0.209408685152911,3,13.9133680555556,29.9
1.8,11.8023574772345,25.7225670507307,1.04426564513469,-0.20563300308893,3,13.9133680555556,29.9
1.83333333333333,11.8024057492631,25.7540019066361,0.842610404255883,-0.201655240878804,3,13.9133680555556,29.9
1.86666666666667,11.8024390482357,25.7787843594408,0.645105345643433,-0.19750505861245,3,13.9133680555556,29.9
1.9,11.8024582284884,25.7970520723934,0.451730497112118,-0.193374848531315,3,13.9133680555556,29.9
1.93333333333333,11.8024640201162,25.8089447232667,0.262595905577316,-0.189134591534802,3,13.9133680555556,29.9
1.96666666666667,11.8024569959306,25.814603448064,0.0777135373180095,-0.184882368259306,3,13.9133680555556,29.9
2,11.8024381314956,25.8147372971199,0.0204566794442421,-0.0572568578737674,3,13.9133680555556,29.9
2.03333333333333,11.8024123182282,25.8140567079544,0.000607922022497361,-0.0198487574217448,3,13.9133680555556,29.9
2.06666666666667,11.8024123182282,25.8140567079544,0.00113419216460916,0.000526270142111799,5,13.9133680555556,29.9
2.1,11.8024123182282,25.8140567079544,0.00256734043291944,0.00143314826831028,5,13.9133680555556,29.9
2.13333333333333,11.8024123182282,25.8140567079544,0.00471728023681605,0.00214993980389661,5,13.9133680555556,29.9
2.16666666666667,11.8024123182282,25.8140567079544,0.00731559311899101,0.00259831288217496,5,13.9133680555556,29.9
2.2,11.8024123182282,25.8140567079544,0.0100558267974117,0.00274023367842071,5,13.9133680555556,29.9
2.23333333333333,11.8024123182282,25.8140567079544,0.0126307316029295,0.00257490480551778,5,13.9133680555556,29.9
2.26666666666667,11.8024123182282,25.8140567079544,0.0147638151561868,0.00213308355325732,5,13.9133680555556,29.9
2.3,11.8024123182282,25.8140567079544,0.0162334833886476,0.00146966823246081,5,13.9133680555556,29.9
2.33333333333333,11.8024123182282,25.8140567079544,0.0168889068180436,0.000655423429395969,5,13.9133680555556,29.9
2.36666666666667,11.8024123182282,25.8140567079544,0.0166575431763806,-0.000231363641662975,5,13.9133680555556,29.9
2.4,11.8024123182282,25.8140567079544,0.0155449158168575,-0.00111262735952312,5,13.9133680555556,29.9
2.43333333333333,11.8024123182282,25.8140567079544,0.0136277629879555,-0.001917152828902,5,13.9133680555556,29.9
2.46666666666667,11.8024123182282,25.8140567079544,0.0110420229753005,-0.00258574001265504,5,13.9133680555556,29.9
2.5,11.8024123182282,25.8140567079544,0.00796730523030246,-0.00307471774499803,5,13.9133680555556,29.9
2.53333333333333,11.8024123182282,25.8140567079544,0.00460953054462481,-0.00335777468567765,5,13.9133680555556,29.9
2.56666666666667,11.8024123182282,25.8140567079544,0.00118332557209288,-0.00342620497253192,5,13.9133680555556,29.9
2.6,11.8024123182282,25.8140567079544,0.00210444405913766,0.000921118487044774,5,13.9133680555556,29.9
2.63333333333333,11.8024123182282,25.8140567079544,0.00506889172771959,0.00296444766858193,5,13.9133680555556,29.9
2.66666666666667,11.8024123182282,25.8140567079544,0.00755828451997695,0.00248939279225736,5,13.9133680555556,29.9
2.7,11.8024123182282,25.8140567079544,0.0094617091933727,0.00190342467339575,5,13.9133680555556,29.9
2.73333333333333,11.8024123182282,25.8140567079544,0.0107130803441918,0.00125137115081913,5,13.9133680555556,29.9
2.76666666666667,11.8024123182282,25.8140567079544,0.0112916248821288,0.000578544537937011,5,13.9133680555556,29.9
2.8,11.8024123182282,25.8140567079544,0.0112192115872112,-7.24132949176913e-05,5,13.9133680555556,29.9
2.83333333333333,11.8024123182282,25.8140567079544,0.0105550711394046,-0.000664140447806594,5,13.9133680555556,29.9
2.86666666666667,11.8024123182282,25.8140567079544,0.00938856646930259,-0.00116650467010197,5,13.9133680555556,29.9
2.9,11.8024123182282,25.8140567079544,0.00783072639900899,-0.0015578400702936,5,13.9133680555556,29.9
2.93333333333333,11.8024123182282,25.8140567079544,0.00600525226198578,-0.00182547413702321,5,13.9133680555556,29.9
2.96666666666667,11.8024123182282,25.8140567079544,0.00403965560434056,-0.00196559665764522,5,13.9133680555556,29.9
3,11.8024123182282,25.8140567079544,0.00205709540649083,-0.00198256019784973,5,13.9133680555556,29.9
3.03333333333333,11.8024123182282,25.8140567079544,0.000169366872982149,-0.00188772853350868,5,13.9133680555556,29.9
3.06666666666667,11.8024123182282,25.8140567079544,0.00152863774430844,0.00135927087132629,5,13.9133680555556,29.9
3.1,11.8024123182282,25.8140567079544,0.00306142365225182,0.00153278590794338,5,13.9133680555556,29.9
3.13333333333333,11.802413181,25.8149243390605,0.0519129255100245,0.0488515018577727,4,13.9133680555556,29.9
3.16666666666667,11.8024157416967,25.8174994583169,0.102843724495555,0.05093079898553,4,13.9133680555556,29.9
3.2,11.8024199793296,25.8217609586625,0.153009537824158,0.0501658133286037,4,13.9133680555556,29.9
3.23333333333333,11.8024258636724,25.8276784436173,0.20215652257492,0.0491469847507614,4,13.9133680555556,29.9
3.26666666666667,11.8024333581672,25.835215149343,0.250128285465015,0.0479717628900957,4,13.9133680555556,29.9
3.3,11.8024424231864,25.8443312250543,0.296902638463395,0.0467743529983797,4,13.9133680555556,29.9
3.33333333333333,11.8024530201899,25.8549879136234,0.342541197819943,0.0456385593565478,4,13.9133680555556,29.9
3.36666666666667,11.8024651125593,25.8671483904063,0.387097537869609,0.0445563400496656,4,13.9133680555556,29.9
3.4,11.8024786652226,25.8807773858065,0.430615456464879,0.0435179185952705,4,13.9133680555556,29.9
3.43333333333333,11.8024936443574,25.8958408869695,0.473130206559496,0.042514750094617,4,13.9133680555556,29.9
3.46666666666667,11.8025100169022,25.9123056461628,0.514652870747939,0.0415226641884425,4,13.9133680555556,29.9
3.5,11.8025277497808,25.9301384008482,0.555180422102147,0.0405275513542088,4,13.9133680555556,29.9
3.53333333333333,11.8025468098909,25.9493058624623,0.594716298601477,0.0395358764993295,4,13.9133680555556,29.9
3.56666666666667,11.8025671643363,25.9697749493774,0.633269248627304,0.0385529500258268,4,13.9133680555556,29.9
3.6,11.8025887805954,25.9915129568173,0.670851698557551,0.0375824499302467,4,13.9133680555556,29.9
3.63333333333333,11.8026116017978,26.0144877170173,0.707484448326733,0.0366327497691826,4,13.9133680555556,29.9
3.66666666666667,11.8026354702688,26.0386683752201,0.743224407157505,0.0357399588307722,4,13.9133680555556,29.9
3.7,11.8026602010263,26.0640262026969,0.778132148276059,0.034907741118554,4,13.9133680555556,29.9
3.73333333333333,11.802685611392,26.0905343220661,0.812257344439559,0.0341251961634994,4,13.9133680555556,29.9
3.76666666666667,11.8027115296076,26.1181701422797,0.845931835412709,0.0336744909731499,4,13.9133680555556,29.9
3.8,11.8027378225254,26.146937129556,0.880397735345982,0.0344658999332736,4,13.9133680555556,29.9
3.83333333333333,11.8027644273564,26.176891480963,0.917492546814734,0.0370948114687515,4,13.9133680555556,29.9
3.86666666666667,11.8027913649836,26.208151667465,0.959021034310659,0.0415284874959252,4,13.9133680555556,29.9
3.9,11.8028186878805,26.2408914937239,1.00648871230138,0.047467677990724,4,13.9133680555556,29.9
3.93333333333333,11.8028462193517,26.27533010783,1.06113046227538,0.0546417499739982,4,13.9133680555556,29.9
3.96666666666667,11.8028732414822,26.3117245189384,1.1239820573642,0.0628515950888175,4,13.9133680555556,29.9
4,11.8028982947265,26.3503615321502,1.19578206940931,0.0718000120451114,4,13.9133680555556,29.9
4.03333333333333,11.8029190377482,26.3915495234586,1.27714985146384,0.0813677820545256,4,13.9133680555556,29.9
4.06666666666667,11.8029331099149,26.4356175427756,1.3686476619477,0.0914978104838688,4,13.9133680555556,29.9
4.1,11.8029386968783,26.4829077932448,1.47050650160746,0.101858839659759,4,13.9133680555556,29.9
4.13333333333333,11.8029343555168,26.5337663652423,1.58272873847421,0.11222223686675,4,13.9133680555556,29.9
4.16666666666667,11.8029189781734,26.5885345530679,1.70502681783364,0.122298079359429,4,13.9133680555556,29.9
4.2,11.802891819498,26.6475414100892,1.83697790666107,0.131951088827424,4,13.9133680555556,29.9
4.23333333333333,11.8028524941488,26.7110993960639,1.97797301948233,0.140995112821268,4,13.9133680555556,29.9
4.26666666666667,11.8028009336137,26.7794961285145,2.12716383716935,0.149190817687018,4,13.9133680555556,29.9
4.3,11.8027373076449,26.8529906619804,2.28371078322316,0.156546946053808,4,13.9133680555556,29.9
4.33333333333333,11.8026619126008,26.9318140538115,2.44672674424549,0.163015961022335,4,13.9133680555556,29.9
4.36666666666667,11.8025750286662,27.0161638926926,2.61511406345571,0.168387319210214,4,13.9133680555556,29.9
4.4,11.8024767922628,27.1062014976072,2.78782413266696,0.172710069211252,4,13.9133680555556,29.9
4.43333333333333,11.8023671095061,27.2020550981824,2.96392646387449,0.176102331207533,4,13.9133680555556,29.9
4.46666666666667,11.8022455566343,27.3038239824356,3.14260615572891,0.178679691854421,4,13.9133680555556,29.9
4.5,11.8021113092977,27.4115814304666,3.32312422986304,0.180518074134128,4,13.9133680555556,29.9
4.53333333333333,11.8019631182907,27.525379375475,3.50496028025609,0.181836050393043,4,13.9133680555556,29.9
4.56666666666667,11.8017993317185,27.6452546392539,3.68768566995814,0.182725389702054,4,13.9133680555556,29.9
4.6,11.8016179566724,27.7712295218643,3.8708606256795,0.183174955721357,4,13.9133680555556,29.9
4.63333333333333,11.8014167506589,27.9033116256468,4.05404040409714,0.183179778417646,4,13.9133680555556,29.9
4.66666666666667,11.8011933276564,28.0414932600445,4.23674498430799,0.182704580210851,4,13.9133680555556,29.9
4.7,11.8009452629823,28.1857491208182,4.41839951414672,0.181654529838722,4,13.9133680555556,29.9
4.73333333333333,11.8006701817416,28.3360357906637,4.59853313721349,0.180133623066778,4,13.9133680555556,29.9
4.76666666666667,11.8003658176769,28.4922972149913,4.77685120112368,0.178318063910185,4,13.9133680555556,29.9
4.8,11.8000300389376,28.6544697720178,4.95318423395716,0.176333032833476,4,13.9133680555556,29.9
4.83333333333333,11.7996608437431,28.8224855161457,5.12743246496017,0.174248231003016,4,13.9133680555556,29.9
4.86666666666667,11.799256334879,28.9962726910754,5.29943553797112,0.172003073010948,4,13.9133680555556,29.9
4.9,11.7988146852505,29.1757529606283,5.4690013632465,0.16956582527538,4,13.9133680555556,29.9
4.93333333333333,11.7983340972948,29.3608431937086,5.63602624621888,0.167024882972385,4,13.9133680555556,29.9
4.96666666666667,11.7978127666849,29.5514579797117,5.80048169802373,0.164455451804847,4,13.9133680555556,29.9
5,11.7972488555069,29.7475121416049,5.96240383905381,0.161922141030081,4,13.9133680555556,29.9
5.03333333333333,11.7966404778581,29.9489223120543,6.12186104655557,0.159457207501755,4,13.9133680555556,29.9
5.06666666666667,11.7959856970417,30.1556076420857,6.27893201564413,0.157070969088568,4,13.9133680555556,29.9
5.1,11.7952832629962,30.3674891977668,6.43361412502039,0.154682109376257,4,13.9133680555556,29.9
5.13333333333333,11.79453514016,30.5844827754718,6.58563528682562,0.152021161805233,4,13.9133680555556,29.9
5.16666666666667,11.793745391936,30.8065001178628,6.73506068282348,0.149425395997856,4,13.9133680555556,29.9
5.2,11.792917938916,31.0334552145028,6.88191152146069,0.146850838637214,4,13.9133680555556,29.9
5.23333333333333,11.792059893347,31.2652630766867,7.02623721184761,0.144325690386912,4,13.9133680555556,29.9
5.26666666666667,11.7911756915125,31.5018406128455,7.16813423697846,0.141897025130853,4,13.9133680555556,29.9
5.3,11.7902663800609,31.743112914064,7.30801364944908,0.13987941247062,4,13.9133680555556,29.9
5.33333333333333,11.7893308030502,31.9890202095415,7.44628282846791,0.138269179018828,4,13.9133680555556,29.9
5.36666666666667,11.7883666248284,32.2395130421265,7.58319021074855,0.136907382280642,4,13.9133680555556,29.9
5.4,11.7873710544862,32.4945490068996,7.71889110526247,0.135700894513922,4,13.9133680555556,29.9
5.43333333333333,11.7863412794477,32.7540897062244,7.85350283152443,0.134611726261959,4,13.9133680555556,29.9
5.46666666666667,11.7852746628011,33.0181004001587,7.98710349511311,0.133600663588682,4,13.9133680555556,29.9
5.5,11.784168800335,33.2865486447992,8.11979025099541,0.132686755882299,4,13.9133680555556,29.9
5.53333333333333,11.7830213238632,33.5594530488519,8.25564680049668,0.135856549501268,4,13.9133680555556,29.9
5.56666666666667,11.7818295652929,33.8369609010225,8.39523511224349,0.139588311746811,4,13.9133680555556,29.9
5.6,11.7805913424385,34.1191283149104,8.53471737244183,0.139482260198346,4,13.9133680555556,29.9
5.63333333333333,11.7793050223662,34.4059084981177,8.67171955061764,0.137002178175807,4,13.9133680555556,29.9
5.66666666666667,11.7779693824299,34.6971953320684,8.80499504770342,0.13327549708578,4,13.9133680555556,29.9
5.7,11.776583505538,34.9928544613417,8.93402451662627,0.129029468922846,4,13.9133680555556,29.9
5.73333333333333,11.7751467031271,35.2927422998824,9.0587420690106,0.124717552384332,4,13.9133680555556,29.9
5.76666666666667,11.7736584497222,35.5967171469694,9.17929075833272,0.120548689322124,4,13.9133680555556,29.9
5.8,11.7721183271963,35.9046442296569,9.29594773570255,0.116656977369823,4,13.9133680555556,29.9
5.83333333333333,11.7705248685717,36.2164002520393,9.40911223459477,0.113164498892218,4,13.9133680555556,29.9
5.86666666666667,11.7688732011597,36.5318760434635,9.51922179008977,0.110109555495006,4,13.9133680555556,29.9
5.9,11.7671596047577,36.8509768873187,9.62669978014154,0.107477990051766,4,13.9133680555556,29.9
5.93333333333333,11.7653820125248,37.1736215698428,9.73192981507806,0.105230034936522,4,13.9133680555556,29.9
5.96666666666667,11.7635392667881,37.4997408495488,9.83524544302212,0.103315627944061,4,13.9133680555556,29.9
6,11.7616305886606,37.8292756334897,9.93691813971681,0.101672696694692,4,13.9133680555556,29.9
6.03333333333333,11.7596552669448,38.1621746497828,10.0371484212108,0.100230281493975,4,13.9133680555556,29.9
6.06666666666667,11.7576125207497,38.4983924780714,10.1360905507559,0.0989421295451134,4,13.9133680555556,29.9
6.1,11.7555014747128,38.8378883061916,10.2338687688614,0.0977782181055336,4,13.9133680555556,29.9
6.13333333333333,11.7533211915348,39.1806250958461,10.3305863987443,0.0967176298828498,4,13.9133680555556,29.9
