Time,x_ego,y_ego,velocity,acceleration,action,x_ped,y_ped
0,11.8,8.9,7,0,1,15.5,29.9
0.0333333333333333,11.8,9.13327037939431,6.99615577953002,-0.00384422046998356,1,15.3694444444444,29.9
0.0666666666666667,11.8,9.36640659881126,6.99196947109348,-0.00418630843653833,1,15.2444444444444,29.9
0.1,11.8,9.59940075527911,6.98769498718995,-0.00427448390352669,1,15.125,29.9
0.133333333333333,11.8,9.83225378528415,6.9834976545359,-0.00419733265404787,1,15.0111111111111,29.9
0.166666666666667,11.8,10.0649678802301,6.97935585456763,-0.00414179996826913,1,14.9027777777778,29.9
0.2,11.8,10.2975446186632,6.97525409491249,-0.00410175965514537,1,14.8,29.9
0.233333333333333,11.8,10.5299851399444,6.97118127319767,-0.00407282171482137,1,14.7027777777778,29.9
0.266666666666667,11.8,10.7622902687052,6.96712943294736,-0.00405184025031069,1,14.6111111111111,29.9
0.3,11.8,10.9944606040335,6.96309287213007,-0.00403656081728965,1,14.525,29.9
0.333333333333333,11.8,11.2264965833863,6.95906750439986,-0.00402536773020401,1,14.4444444444444,29.9
0.366666666666667,11.8,11.4583985283897,6.95505040137947,-0.00401710302039238,1,14.3694444444444,29.9
0.4,11.8,11.6901666776599,6.95103946463339,-0.00401093674607722,1,14.3,29.9
0.433333333333333,11.8,11.9218012103233,6.94703319054231,-0.00400627409108711,1,14.2361111111111,29.9
0.466666666666667,11.8,12.1533022628712,6.94303050173604,-0.00400268880626342,1,14.1777777777778,29.9
0.5,11.8,12.3846699412377,6.93903062623031,-0.00399987550573222,1,14.125,29.9
0.533333333333333,11.8,12.6159043294559,6.93503301077307,-0.00399761545723631,1,14.0777777777778,29.9
0.566666666666667,11.8,12.8470054958598,6.93103725873891,-0.00399575203416092,1,14.0361111111111,29.9
0.6,11.8,13.0779734975296,6.92704308564579,-0.003994173093127,1,14,29.9
0.633333333333333,11.8000000418148,13.3088083834769,6.92305028732226,-0.00399279832352839,1,13.9694444444444,29.9
0.666666666666667,11.8000011395379,13.5395101969266,6.9190587176173,-0.00399156970495529,1,13.9444444444444,29.9
0.7,11.8000077921754,13.7700789769383,6.91506827711905,-0.00399044049825381,1,13.925,29.9
0.733333333333333,11.8000271357062,14.0005147594607,6.91107891004932,-0.00398936706973352,1,13.9111111111111,29.9
0.766666666666667,11.8000669370167,14.2308175778249,6.90709058397891,-0.00398832607040589,1,13.9027777777778,29.9
0.8,11.8001319586665,14.4609874629732,6.90310325606249,-0.00398732791641976,1,13.9,29.9
0.833333333333333,11.8002240721339,14.6910244438535,6.89911687496301,-0.00398638109948468,1,13.9,29.9
0.866666666666667,11.8003424578294,14.9209285481885,6.89513136714661,-0.00398550781639795,1,13.9,29.9
0.9,11.8004817469712,15.1506998040665,6.89114665812507,-0.00398470902153747,1,13.9,29.9
0.933333333333333,11.8006342307394,15.380338241171,6.88716274844336,-0.00398390968170759,1,13.9,29.9
0.966666666666667,11.8007941034725,15.609843526892,6.88315788260395,-0.00400486583941273,1,13.9,29.9
1,11.8009577563151,15.8389846206987,6.86531167364557,-0.0178462089583826,1,13.9,29.9
1.03333333333333,11.8011230525477,16.0672427709994,6.83018175930779,-0.0351299143377783,3,13.9,29.9
1.06666666666667,11.8012888516868,16.2941567062659,6.78465914965457,-0.0455226096532213,3,13.9,29.9
1.1,11.8014545686581,16.5192939289578,6.72357951695354,-0.0610796327010235,3,13.9,29.9
1.13333333333333,11.8016198989293,16.7421936825737,6.65041158042566,-0.0731679365278843,3,13.9,29.9
1.16666666666667,11.8017847656916,16.962481762372,6.5668798500761,-0.0835317303495575,3,13.9,29.9
1.2,11.8019492610686,17.1798123759369,6.47296471629651,-0.0939151337795927,3,13.9,29.9
1.23333333333333,11.802113659228,17.3938975685992,6.37215611639885,-0.100808599897663,3,13.9,29.9
1.26666666666667,11.8022784159416,17.6045362782858,6.26617775339496,-0.105978363003886,3,13.9,29.9
1.3,11.8024441213933,17.8116139596967,6.1584968407493,-0.107680912645658,3,13.9,29.9
1.33333333333333,11.8026114045247,18.015073503251,6.04909215260404,-0.109404688145263,3,13.9,29.9
1.36666666666667,11.8027807834562,18.2148287548466,5.93624194534065,-0.112850207263389,3,13.9,29.9
1.4,11.8029525557812,18.410736176489,5.81822456418994,-0.118017381150708,3,13.9,29.9
1.43333333333333,11.8031267326353,18.6025948500953,5.69331855108525,-0.124906013104692,3,13.9,29.9
1.46666666666667,11.8033030548186,18.7902038877426,5.56324693668135,-0.130071614403898,3,13.9,29.9
1.5,11.8034810554532,18.9734198348446,5.42973264757311,-0.133514289108247,3,13.9,29.9
1.53333333333333,11.8036600728045,19.1520992584474,5.29105422359664,-0.138678423976471,3,13.9,29.9
1.56666666666667,11.8038393749396,19.3261565154244,5.1524006524467,-0.138653571149935,3,13.9,29.9
1.6,11.8040182926157,19.4956211468524,5.01549432635425,-0.13690632609245,3,13.9,29.9
1.63333333333333,11.8041962021286,19.6605226918471,4.87861309955996,-0.136881226794294,3,13.9,29.9
1.66666666666667,11.8043725532902,19.8208619827083,4.74175699632605,-0.136856103233905,3,13.9,29.9
1.7,11.8045469179102,19.9766398469946,4.60492595132966,-0.136831044996392,3,13.9,29.9
1.73333333333333,11.8047189866505,20.127856093784,4.46803143037222,-0.13689452095744,3,13.9,29.9
1.76666666666667,11.8048885162163,20.274478460241,4.32930202330069,-0.138729407071532,3,13.9,29.9
1.8,11.8050552951856,20.4164465854235,4.18878389982722,-0.140518123473466,3,13.9,29.9
1.83333333333333,11.8052191310218,20.5537010576957,4.04648836960284,-0.142295530224385,3,13.8991319444444,29.9
1.86666666666667,11.8053798168712,20.6861834089924,3.90246099278964,-0.144027376813201,3,13.8965277777778,29.9
1.9,11.8055371395645,20.8138649160333,3.75844097493459,-0.144020017855047,3,13.8921875,29.9
1.93333333333333,11.8056908736934,20.9367460426262,3.61444040472768,-0.144000570206913,3,13.8861111111111,29.9
1.96666666666667,11.8058407599658,21.0548275960314,3.47046788422053,-0.143972520507142,3,13.8782986111111,29.9
2,11.805986520655,21.1681106266174,3.32652953018757,-0.143938354032961,3,13.86875,29.9
2.03333333333333,11.8061278785247,21.2765963559353,3.18262968103924,-0.143899849148337,3,13.8574652777778,29.9
2.06666666666667,11.8062645739926,21.3802861251667,3.03877139375015,-0.143858287289084,3,13.8444444444444,29.9
2.1,11.8063964081722,21.4792100608499,2.89667893086572,-0.142092462884431,3,13.8296875,29.9
2.13333333333333,11.8065231840567,21.5733696389756,2.75290924480054,-0.143769686065178,3,13.8131944444444,29.9
2.16666666666667,11.8066447344967,21.6627663720358,2.61090765416861,-0.142001590631933,3,13.7949652777778,29.9
2.2,11.8067609116835,21.7474017942203,2.46723025868142,-0.143677395487193,3,13.775,29.9
2.23333333333333,11.8068715436041,21.8272487509346,2.32359960806066,-0.143630650620756,3,13.7532986111111,29.9
2.26666666666667,11.8069765246855,21.9023376586875,2.18177347087084,-0.14182613718982,3,13.7298611111111,29.9
2.3,11.8070757265181,21.972681165575,2.03913124816233,-0.142642222708514,3,13.7046875,29.9
2.33333333333333,11.8071690678367,22.0383333773442,1.90042986233649,-0.138701385825836,3,13.6777777777778,29.9
2.36666666666667,11.8072565380591,22.0994056699789,1.76436286259764,-0.13606699973885,3,13.6491319444444,29.9
2.4,11.8073381110661,22.1559873589931,1.63098838036833,-0.133374482229313,3,13.61875,29.9
2.43333333333333,11.8074137765292,22.2081677293424,1.50028239471055,-0.130705985657773,3,13.5866319444444,29.9
2.46666666666667,11.8074835079081,22.2560066145263,1.3704908637786,-0.129791530931952,3,13.5527777777778,29.9
2.5,11.8075472973107,22.2995626680964,1.24330647883086,-0.12718438494774,3,13.5171875,29.9
2.53333333333333,11.8076052241262,22.3389506502666,1.12039558628113,-0.12291089254973,3,13.4798611111111,29.9
2.56666666666667,11.8076573833088,22.3742838112567,1.00002823991547,-0.120367346365668,3,13.4407986111111,29.9
2.6,11.8077038515112,22.4056486420771,0.882317416654293,-0.117710823261172,3,13.4,29.9
2.63333333333333,11.8077447202417,22.4331349017757,0.767299615204927,-0.115017801449366,3,13.3574652777778,29.9
2.66666666666667,11.8077800860165,22.4568301898366,0.654837330459741,-0.112462284745186,3,13.3131944444444,29.9
2.7,11.8078100453372,22.476818025734,0.544859261644387,-0.109978068815354,3,13.2671875,29.9
2.73333333333333,11.8078346977368,22.4931819046907,0.437411802072668,-0.107447459571719,3,13.2194444444444,29.9
2.76666666666667,11.8078541458569,22.5060064094587,0.332495185874374,-0.104916616198294,3,13.1699652777778,29.9
2.8,11.8078685635268,22.5154323043968,0.233489421240289,-0.0990057646340853,3,13.11875,29.9
2.83333333333333,11.807878121626,22.5215973004295,0.136871014747381,-0.0966184064929081,3,13.0657986111111,29.9
2.86666666666667,11.8078829569303,22.5246112747272,0.0445500509790709,-0.0923209637683097,3,13.0111111111111,29.9
2.9,11.8078835633666,22.5248692203366,0.00545405489046631,-0.0390959960886046,3,12.9546875,29.9
2.93333333333333,11.8078828830558,22.5247215267072,0.00340627657383631,-0.00204777831663,5,12.8965277777778,29.9
2.96666666666667,11.8078828830558,22.5247215267072,0.00393091928604307,0.000524642712206762,5,12.8366319444444,29.9
3,11.8078828830558,22.5247215267072,0.00471874991678116,0.000787830630738085,5,12.775,29.9
3.03333333333333,11.8078828830558,22.5247215267072,0.00568594599857565,0.000967196081794499,5,12.7116319444444,29.9
3.06666666666667,11.8078828830558,22.5247215267072,0.00671878677380164,0.00103284077522599,5,12.6465277777778,29.9
3.1,11.8078828830558,22.5247215267072,0.00769180622504029,0.000973019451238645,5,12.5796875,29.9
3.13333333333333,11.8078828830558,22.5247215267072,0.00848413015183726,0.000792323926796968,5,12.5111111111111,29.9
3.16666666666667,11.8078828830558,22.5247215267072,0.00899286770283594,0.000508737550998679,5,12.4407986111111,29.9
3.2,11.8078828830558,22.5247215267072,0.00914285866016024,0.000149990957324309,5,12.36875,29.9
3.23333333333333,11.8078828830558,22.5247215267072,0.00889249009720925,-0.00025036856295099,5,12.2949652777778,29.9
3.26666666666667,11.8078828830558,22.5247215267072,0.00823566208727656,-0.00065682800993269,5,12.2194444444444,29.9
3.3,11.8078828830558,22.5247215267072,0.00720028226316514,-0.00103537982411142,5,12.1421875,29.9
3.33333333333333,11.8078828830558,22.5247215267072,0.00584389163581485,-0.00135639062735029,5,12.0631944444444,29.9
3.36666666666667,11.8078828830558,22.5247215267072,0.00424716514734535,-0.0015967264884695,5,11.9824652777778,29.9
3.4,11.8078828830558,22.5247215267072,0.00250609252267703,-0.00174107262466832,5,11.9,29.9
3.43333333333333,11.8078828830558,22.5247215267072,0.000723635975049411,-0.00178245654762762,5,11.8157986111111,29.9
3.46666666666667,11.8078828830558,22.5247215267072,0.000998407015910417,0.000274771040861006,5,11.7298611111111,29.9
3.5,11.8078828830558,22.5247215267072,0.00256672110794088,0.00156831409203047,5,11.6421875,29.9
3.53333333333333,11.8078828830558,22.5247215267072,0.00390249932881187,0.00133577822087099,5,11.5527777777778,29.9
3.56666666666667,11.8078828830558,22.5247215267072,0.00494586509682966,0.00104336576801779,5,11.4616319444444,29.9
3.6,11.8078828830558,22.5247215267072,0.0055599382408062,0.000614073143976534,5,11.36875,29.9
3.63333333333333,11.8078831426553,22.5249289632856,0.0095953517090642,0.00403541346825801,5,11.2741319444444,29.9
3.66666666666667,11.807883670803,22.5253510026231,0.0184037718650474,0.00880842015598317,5,11.1777777777778,29.9
3.7,11.8078847877947,22.5262434528014,0.0362668457086444,0.017863073843597,5,11.0796875,29.9
3.73333333333333,11.8078869188053,22.5279456726405,0.0662587905477455,0.0299919448391011,4,10.9798611111111,29.9
3.76666666666667,11.8078904825829,22.5307911842743,0.104539208852582,0.0382804183048364,4,10.8782986111111,29.9
3.8,11.807895818832,22.5350488555843,0.150837058475656,0.0462978496230746,4,10.775,29.9
3.83333333333333,11.8079031540729,22.5408944708285,0.199740954578594,0.0489038961029375,4,10.6699652777778,29.9
3.86666666666667,11.8079125307983,22.5483528161889,0.247573189083267,0.0478322345046729,4,10.5631944444444,29.9
3.9,11.8079239198893,22.5573864618657,0.294276752730975,0.0467035636477079,4,10.4546875,29.9
3.93333333333333,11.80793729973,22.5679582904389,0.339891645925605,0.0456148931946303,4,10.3444444444444,29.9
3.96666666666667,11.8079526581622,22.5800326653699,0.384455436758829,0.0445637908332239,4,10.2324652777778,29.9
4,11.8079699922598,22.5935751792569,0.427999607791785,0.0435441710329562,4,10.11875,29.9
4.03333333333333,11.8079893077188,22.6085524437601,0.470550688101091,0.0425510803093062,4,10.0032986111111,29.9
4.06666666666667,11.8080106175677,22.6249316973577,0.5121154868283,0.0415647987272092,4,9.88611111111111,29.9
4.1,11.8080339399858,22.6426800597968,0.552687215166771,0.0405717283384702,4,9.7671875,29.9
4.13333333333333,11.8080592966059,22.6617645101417,0.592267407665549,0.0395801924987786,4,9.64652777777778,29.9
4.16666666666667,11.80808671081,22.6821521489613,0.630864482997066,0.0385970753315168,4,9.52413194444444,29.9
4.2,11.8081162056636,22.7038103912035,0.668491443355534,0.0376269603584676,4,9.4,29.9
4.23333333333333,11.808147801649,22.7267071276507,0.705168426368185,0.0366769830126514,4,9.27413194444444,29.9
4.26666666666667,11.808181515079,22.7508114529005,0.740951576634878,0.0357831502666928,4,9.14652777777778,29.9
4.3,11.8082173568486,22.7760945678687,0.77590278857009,0.0349512119352124,4,9.0171875,29.9
4.33333333333333,11.8082553300017,22.8025295312739,0.810071421378948,0.0341686328088581,4,8.88611111111111,29.9
4.36666666666667,11.8082954275594,22.8300909076977,0.843497599819558,0.0334261784406092,4,8.75329861111111,29.9
4.4,11.8083375923189,22.8587545057155,0.876214679184127,0.0327170793645697,4,8.61875,29.9
4.43333333333333,11.8083815993975,22.8884971816923,0.908251204956879,0.0320365257727516,4,8.48246527777778,29.9
4.46666666666667,11.8084271751663,22.9192965174735,0.939613122203026,0.0313619172461468,4,8.34444444444444,29.9
4.5,11.8084740418634,22.9511295127844,0.970266687452259,0.0306535652492332,4,8.2046875,29.9
4.53333333333333,11.8085219209019,22.983972173421,1.00018990002686,0.029923212574599,4,8.06319444444444,29.9
4.56666666666667,11.8085705516055,23.0178000052072,1.02937377924118,0.0291838792143213,4,7.91996527777778,29.9
4.6,11.8086197083828,23.0525915324311,1.05816510628673,0.0287913270455527,4,7.775,29.9
4.63333333333333,11.8086692457302,23.0883563783189,1.08810328458359,0.0299381782968566,4,7.62829861111111,29.9
4.66666666666667,11.8087191466076,23.1251674314298,1.12127207796023,0.0331687933766434,4,7.47986111111111,29.9
4.7,11.8087695312807,23.163164215786,1.15952065536359,0.0382485774033599,4,7.3296875,29.9
4.73333333333333,11.8088206448552,23.2025417051212,1.20432998296795,0.0448093276043591,4,7.17777777777778,29.9
4.76666666666667,11.8088728419749,23.2435387672026,1.25686787804077,0.0525378950728173,4,7.02413194444444,29.9
4.8,11.8089265720779,23.2864287750574,1.31802698975158,0.0611591117108108,4,6.86875,29.9
4.83333333333333,11.808982360354,23.3315086403817,1.38831293064384,0.0702859408922574,4,6.71163194444444,29.9
4.86666666666667,11.8090407845235,23.3790864492618,1.4679139344187,0.0796010037748671,4,6.55277777777778,29.9
4.9,11.8091024522524,23.429471532193,1.55669743676294,0.088783502344236,4,6.3921875,29.9
4.93333333333333,11.8091679731885,23.4829623444491,1.65415599933741,0.0974585625744697,4,6.22986111111111,29.9
4.96666666666667,11.8092379323082,23.5398371854849,1.75962898597697,0.105472986639559,4,6.06579861111111,29.9
5,11.8093128701721,23.6003516424413,1.87241912183973,0.112790135862759,4,5.9,29.9
5.03333333333333,11.809393264733,23.664737708019,1.99180472485498,0.119385603015254,4,5.9,29.9
5.06666666666667,11.8094795125094,23.733201540522,2.11692382248361,0.12511909762863,4,5.9,29.9
5.1,11.8095719083225,23.8059176107038,2.24678047222453,0.129856649740916,4,5.9,29.9
5.13333333333333,11.8096703713837,23.8830284894505,2.38047441161635,0.133693939391825,4,5.9,29.9
5.16666666666667,11.8097736831831,23.9646489995281,2.51724320735582,0.136768795739471,4,5.9,29.9
5.2,11.8098804289906,24.0508711101487,2.65648354890084,0.139240341545021,4,5.9,29.9
5.23333333333333,11.8099894595162,24.141769891641,2.79778874391653,0.141305195015684,4,5.9,29.9
5.26666666666667,11.8101000125263,24.237410367427,2.94097249498943,0.143183751072905,4,5.9,29.9
5.3,11.8102117333602,24.3378546179586,3.0860014582163,0.145028963226866,4,5.9,29.9
5.33333333333333,11.8103246315387,24.4431626380627,3.23276831173999,0.146766853523696,4,5.9,29.9
5.36666666666667,11.8104389959169,24.5533892024081,3.38107008309538,0.148301771355381,4,5.9,29.9
5.4,11.8105552922027,24.6685811426495,3.53064025074318,0.1495701676478,4,5.9,29.9
5.43333333333333,11.8106740601061,24.788775746701,3.68117456993669,0.150534319193516,4,5.9,29.9
5.46666666666667,11.8107958216678,24.9139994362258,3.83231350337672,0.151138933440026,4,5.9,29.9
5.5,11.8109210064399,25.0442646676424,3.98358888690597,0.151275383529248,4,5.9,29.9
5.53333333333333,11.8110499017682,25.1795687188421,4.13458114122506,0.150992254319096,4,5.9,29.9
5.56666666666667,11.8111826308571,25.3198965206675,4.28496866713629,0.150387525911225,4,5.9,29.9
5.6,11.8113191517274,25.4652237404617,4.43451298857967,0.149544321443383,4,5.9,29.9
5.63333333333333,11.8114592723101,25.615519285352,4.58304698991814,0.148534001338474,4,5.9,29.9
5.66666666666667,11.8116026775735,25.7707476325332,4.73046215806061,0.147415168142461,4,5.9,29.9
5.7,11.8117489615219,25.930868841816,4.87658998876125,0.146127830700645,4,5.9,29.9
5.73333333333333,11.8118976614606,26.0958380613882,5.02133881287463,0.144748824113379,4,5.9,29.9
5.76666666666667,11.8120482954672,26.2656093622739,5.16472124194242,0.143382429067787,4,5.9,29.9
5.8,11.8122003930608,26.4401379903203,5.30678954809009,0.142068306147669,4,5.9,29.9
5.83333333333333,11.8123535173587,26.6193816537699,5.4476460340342,0.140856485944113,4,5.9,29.9
5.86666666666667,11.8125072793836,26.8033026207765,5.58745965986263,0.139813625828432,4,5.9,29.9
5.9,11.8126613433512,26.9918694532707,5.72643120662631,0.138971546763684,4,5.9,29.9
5.93333333333333,11.8128154231564,27.1850573487848,5.86475319758416,0.138321990957848,4,5.9,29.9
5.96666666666667,11.8129692725123,27.3828474214334,6.00258436617922,0.137831168595054,4,5.9,29.9
6,11.8131226714878,27.5852251505768,6.14000752299983,0.137423156820612,4,5.9,29.9
6.03333333333333,11.8132754095189,27.7921753246052,6.27692317903381,0.136915656033985,4,5.9,29.9
6.06666666666667,11.8134272753188,28.0036827103031,6.41348984215985,0.136566663126039,4,5.9,29.9
6.1,11.8135780553881,28.21973948132,6.54989046488735,0.136400622727499,4,5.9,29.9
6.13333333333333,11.8137275241327,28.4403396567829,6.68608352098124,0.136193056093885,4,5.9,29.9
6.16666666666667,11.813875438891,28.6654752680179,6.82200573501518,0.13592221403395,4,5.9,29.9
6.2,11.8140215404238,28.895135802171,6.95755337519705,0.135547640181866,4,5.9,29.9
6.23333333333333,11.8141655541803,29.1293065013777,7.09260840822426,0.13505503302721,4,5.9,29.9
6.26666666666667,11.8143071961635,29.3679716663891,7.22725030788413,0.134641899659866,4,5.9,29.9
6.3,11.8144461801154,29.6111202515084,7.36162462378782,0.134374315903692,4,5.9,29.9
6.33333333333333,11.8145822179313,29.8587434418677,7.49572118306336,0.134096559275544,4,5.9,29.9
6.36666666666667,11.8147150190365,30.110831659437,7.62951737239903,0.133796189335673,4,5.9,29.9
6.4,11.8148442906962,30.3673736494438,7.76293884131968,0.133421468920647,4,5.9,29.9
6.43333333333333,11.8149697384648,30.6283566141757,7.89597430681397,0.13303546549429,4,5.9,29.9
6.46666666666667,11.8150910666168,30.8937668509214,8.02856488404272,0.132590577228746,4,5.9,29.9
6.5,11.8152079777869,31.1635894431011,8.16072831534749,0.132163431304768,4,5.9,29.9
6.53333333333333,11.8153201992493,31.4378571816602,8.29640837541774,0.135680060070259,4,5.9,29.9
6.56666666666667,11.815427519401,31.7167265501775,8.4360428046985,0.139634429280758,4,5.9,29.9
6.6,11.8155296675991,32.0002599399723,8.57572809406385,0.139685289365344,4,5.9,29.9
6.63333333333333,11.8156263151625,32.2884150683872,8.71305160169331,0.137323507629462,4,5.9,29.9
6.66666666666667,11.8157171045089,32.5810893878909,8.84674489749198,0.133693295798674,4,5.9,29.9
