Time,x_ego,y_ego,velocity,acceleration,action,x_ped,y_ped
0,11.8,8.9,5,0,1,15.5,29.9
0.0333333333333333,11.7999981770061,9.06660768884077,4.996422616795,-0.00357738320500367,1,15.5,29.9
0.0666666666666667,11.7999864819774,9.23309265306372,4.9926475968178,-0.00377501997719332,1,15.5,29.9
0.1,11.7999579602209,9.39944929832773,4.98873167805074,-0.00391591876706077,1,15.5,29.9
0.133333333333333,11.7999086047774,9.56567368527907,4.98471930081541,-0.00401237723533043,1,15.5,29.9
0.166666666666667,11.7998368467963,9.73176325361333,4.98064896610983,-0.00407033470558638,1,15.5,29.9
0.2,11.7997429300016,9.89771662282003,4.97655281406262,-0.00409615204720293,1,15.5,29.9
0.233333333333333,11.799628300039,10.0635333724517,4.9724562707498,-0.00409654331282194,1,15.5,29.9
0.266666666666667,11.799495086875,10.2292138239202,4.96837847057924,-0.00407780017056147,1,15.5,29.9
0.3,11.7993457103241,10.3947588438917,4.96433309286418,-0.00404537771505886,1,15.5,29.9
0.333333333333333,11.7991826035461,10.5601696784286,4.96032934263744,-0.00400375022674293,1,15.5,29.9
0.366666666666667,11.799008030135,10.7254478197201,4.95637290760407,-0.00395643503337073,1,15.5,29.9
0.4,11.7988239658741,10.8905949030315,4.95246680341061,-0.00390610419345983,1,15.5,29.9
0.433333333333333,11.7986320219179,11.0556126290316,4.94861203429988,-0.00385476911072935,1,15.5,29.9
0.466666666666667,11.798433396499,11.2205027051156,4.94480809931458,-0.00380393498529763,1,15.5,29.9
0.5,11.7982288521355,11.3852668030975,4.94105345624044,-0.00375464307414042,1,15.5,29.9
0.533333333333333,11.798018721305,11.5499065296611,4.93734579116097,-0.00370766507946652,1,15.5,29.9
0.566666666666667,11.7978029444042,11.7144234029733,4.93368217527048,-0.00366361589049546,1,15.5,29.9
0.6,11.7975811402088,11.8788188362835,4.93005930493967,-0.00362287033080744,1,15.5,29.9
0.633333333333333,11.7973527030523,12.0430941285315,4.9264736666665,-0.00358563827317138,1,15.5,29.9
0.666666666666667,11.7971169150241,12.2072504591076,4.92292162448492,-0.00355204218158001,1,15.5,29.9
0.7,11.7968730533789,12.3712933308757,4.91988497204186,-0.0030366524430594,1,15.5,29.9
0.733333333333333,11.7966204469739,12.5352700725628,4.9193295421576,-0.000555429884262715,1,15.5,29.9
0.766666666666667,11.7963585037702,12.6992989664603,4.92331555513512,0.00398601297752244,1,15.5,29.9
0.8,11.7960867398813,12.8635567436772,4.9331808576002,0.00986530246508277,1,15.5,29.9
0.833333333333333,11.7958048040242,13.0282403613171,4.94871603228767,0.0155351746874635,1,15.5,29.9
0.866666666666667,11.7955124885102,13.1935227453335,4.96894164406448,0.0202256117768123,4,15.5,29.9
0.9,11.7952096890891,13.3595441106337,4.99290559222537,0.0239639481608922,4,15.5,29.9
0.933333333333333,11.7948963496618,13.5264144726308,5.01974827592649,0.02684268370112,4,15.5,29.9
0.966666666666667,11.7945724134021,13.6942173376654,5.04875351674423,0.0290052408177424,4,15.5,29.9
1,11.7942377862968,13.8630153550805,5.07938110170137,0.0306275849571378,4,15.5,29.9
1.03333333333333,11.7938923190191,14.0328555071415,5.11122439819642,0.0318432964950492,4,15.5,29.9
1.06666666666667,11.7935358070439,14.2037729546746,5.14397595383788,0.0327515556414566,4,15.5,29.9
1.1,11.7931680039697,14.3757939133093,5.17740301499523,0.0334270611573571,4,15.5,29.9
1.13333333333333,11.7927886414676,14.5489378295192,5.2113295723368,0.0339265573415677,4,15.5,29.9
1.16666666666667,11.7923974494698,14.7232190370451,5.24562288570119,0.0342933133643903,4,15.5,29.9
1.2,11.7919941717472,14.8986480202208,5.28018321683765,0.0345603311364613,4,15.5,29.9
1.23333333333333,11.79157857436,15.0752323495368,5.31493311981305,0.0347499029753999,4,15.5,29.9
1.26666666666667,11.791150447091,15.2529771898318,5.34980429020006,0.0348711703870039,4,15.5,29.9
1.3,11.7907095994955,15.4318854733428,5.38472910937243,0.0349248191723701,4,15.5,29.9
1.33333333333333,11.7902558543506,15.6119577485268,5.41963193636766,0.0349028269952347,4,15.5,29.9
1.36666666666667,11.7897890411059,15.7931918687972,5.45441962488259,0.0347876885149265,4,15.5,29.9
1.4,11.7893089947903,15.9755810282506,5.48890533161705,0.0344857067344595,4,15.5,29.9
1.43333333333333,11.7888155553131,16.1591132404297,5.52300328216463,0.0340979505475794,4,15.5,29.9
1.46666666666667,11.7883085592867,16.3437757429712,5.55673129066193,0.033728008497306,4,15.5,29.9
1.5,11.7877878381495,16.5295571747351,5.59015480312017,0.0334235124582376,4,15.5,29.9
1.53333333333333,11.7872532194935,16.7164485457437,5.62333437668406,0.0331795735638902,4,15.5,29.9
1.56666666666667,11.7867045337215,16.9044417108572,5.65625525488484,0.0329208782007795,4,15.5,29.9
1.6,11.7861416225428,17.0935267125041,5.68882683482695,0.0325715799421111,4,15.5,29.9
1.63333333333333,11.7855643450843,17.2836896925272,5.72091111303647,0.0320842782095161,4,15.5,29.9
1.66666666666667,11.7849725804276,17.4749118455497,5.75235398755421,0.0314428745177429,4,15.5,29.9
1.7,11.7843662270661,17.6671693065678,5.78300916199795,0.0306551744437398,4,15.5,29.9
1.73333333333333,11.7837452004724,17.8604336708189,5.81275177493854,0.029742612940594,4,15.5,29.9
1.76666666666667,11.7831094302267,18.0546727709139,5.84148136233052,0.0287295873919744,4,15.5,29.9
1.8,11.7824588574235,18.249851572056,5.86912710535033,0.0276457430198089,4,15.5,29.9
1.83333333333333,11.7817934324942,18.445933174851,5.89564731200758,0.0265202066572581,4,15.5,29.9
1.86666666666667,11.7811131137803,18.6428797550675,5.92103129660111,0.025383984593522,4,15.5,29.9
1.9,11.7804178641325,18.8406542420213,5.94534181945378,0.0243105228526685,4,15.5,29.9
1.93333333333333,11.7797076448853,19.0392227438331,5.96869455689845,0.0233527374446725,4,15.5,29.9
1.96666666666667,11.7789824145189,19.2385551570187,5.99119434145191,0.0224997845534638,4,15.5,29.9
2,11.7782421310778,19.4386243465526,6.01291327339385,0.0217189319419404,4,15.5,29.9
2.03333333333333,11.777486754855,19.6394051028458,6.03390294408579,0.0209896706919341,4,15.5,29.9
2.06666666666667,11.7767162447352,19.8408749238005,6.05429034481606,0.0203874007302725,4,15.5,29.9
2.1,11.7759305470648,20.0430168547597,6.07426213847846,0.0199717936624042,4,15.5,29.9
2.13333333333333,11.7751295927917,20.2458196388698,6.09396279924889,0.0197006607704289,4,15.5,29.9
2.16666666666667,11.774313302257,20.4492756478656,6.11346788124335,0.0195050819944624,4,15.5,29.9
2.2,11.7734815889236,20.6533793115417,6.13283854293342,0.0193706616900622,4,15.5,29.9
2.23333333333333,11.7726343561336,20.8581276852172,6.15217188421651,0.0193333412830983,4,15.5,29.9
2.26666666666667,11.7717714935424,21.063521172116,6.17156264534492,0.0193907611284052,4,15.5,29.9
2.3,11.7708928781302,21.2695630405236,6.19109071024008,0.0195280648951606,4,15.5,29.9
2.33333333333333,11.7699983759487,21.4762588278746,6.2108041991283,0.0197134888882209,4,15.5,29.9
2.36666666666667,11.7690873334129,21.6837461756963,6.24201415169466,0.0312099525663605,4,15.5,29.9
2.4,11.7681574961226,21.892562087675,6.28896334422937,0.0469491925347061,4,15.5,29.9
2.43333333333333,11.7672070966734,22.103098194969,6.34430040136326,0.0553370571338974,4,15.5,29.9
2.46666666666667,11.7662350473859,22.3155557792699,6.40371970442599,0.0594193030627226,4,15.5,29.9
2.5,11.765240647688,22.5300251905472,6.46468791200959,0.0609682075836071,4,15.5,29.9
2.53333333333333,11.7642234276971,22.746529783092,6.52563601705139,0.0609481050417973,4,15.5,29.9
2.56666666666667,11.7631830594295,22.9650522986894,6.58566227484357,0.0600262577921784,4,15.5,29.9
2.6,11.7621192965427,23.1855534690257,6.6443123976235,0.0586501227799276,4,15.5,29.9
2.63333333333333,11.761031938681,23.4079838328963,6.70140603250294,0.057093634879438,4,15.5,29.9
2.66666666666667,11.7599208119834,23.6322908196947,6.75691985441798,0.0555138219150466,4,15.5,29.9
2.7,11.7587857599524,23.8584225210135,6.81090928650305,0.0539894320850651,4,15.5,29.9
2.73333333333333,11.7576266378285,24.0863298006962,6.86348115666442,0.0525718701613771,4,15.5,29.9
2.76666666666667,11.7564433073197,24.3159675683345,6.91476733376374,0.0512861770993167,4,15.5,29.9
2.8,11.7552356322132,24.547295270158,6.96490581414144,0.0501384803776954,4,15.5,29.9
2.83333333333333,11.7540034744576,24.7802768930642,7.01402982056849,0.0491240064270535,4,15.5,29.9
2.86666666666667,11.7527466906699,25.0148806967905,7.06226191958572,0.0482320990172331,4,15.5,29.9
2.9,11.7514651294546,25.2510787714382,7.1097082297171,0.0474463101313809,4,15.5,29.9
2.93333333333333,11.7501586300901,25.4888464420756,7.15645831770441,0.0467500879873022,4,15.5,29.9
2.96666666666667,11.7488270218976,25.7281617396181,7.2025787527171,0.0461204350126891,4,15.5,29.9
3,11.747470129263,25.9690040006072,7.24808609653045,0.0455073438133589,4,15.5,29.9
3.03333333333333,11.746087774067,26.2113532131645,7.2930103493025,0.0449242527720504,4,15.5,29.9
3.06666666666667,11.7446797715604,26.4551907809562,7.33740826049583,0.0443979111933288,4,15.5,29.9
3.1,11.7432459247639,26.7005006038043,7.38136757562299,0.0439593151271609,4,15.5,29.9
3.13333333333333,11.7417860232952,26.947269317581,7.4249595181604,0.0435919425374047,4,15.5,29.9
3.16666666666667,11.7402998474377,27.1954855543645,7.46823287413267,0.0432733559722704,4,15.5,29.9
3.2,11.7387871729714,27.4451390715621,7.51120480451935,0.0429719303866776,4,15.5,29.9
3.23333333333333,11.7372477758542,27.6962199150477,7.55388239071865,0.0426775861993027,4,15.5,29.9
3.26666666666667,11.7356814316401,27.9487185136833,7.59628119688817,0.0423988061695191,4,15.5,29.9
3.3,11.7340879140763,28.2026258929884,7.63842073223442,0.0421395353462461,4,15.5,29.9
3.33333333333333,11.7324669945456,28.4579337253908,7.68031972557897,0.0418989933445522,4,15.5,29.9
3.36666666666667,11.7308184420954,28.7146342791383,7.72199546834906,0.0416757427700905,4,15.5,29.9
3.4,11.7291420234433,28.9727203797874,7.76346400778681,0.041468539437755,4,15.5,29.9
3.43333333333333,11.7274375031241,29.2321853590833,7.80473961132871,0.0412756035418989,4,15.5,29.9
3.46666666666667,11.7257046440043,29.4930229549545,7.84583085711154,0.0410912457828241,4,15.5,29.9
3.5,11.7239432090314,29.7552270247906,7.88673703120421,0.0409061740926786,4,15.5,29.9
3.53333333333333,11.7221529632867,30.0187912279517,7.92744524683428,0.0407082156300644,4,15.5,29.9
3.56666666666667,11.7203336770618,30.2837085652482,7.96793063015356,0.0404853833192798,4,15.5,29.9
3.6,11.7184851275119,30.5499711602291,8.00816752918481,0.0402368990312549,4,15.5,29.9
3.63333333333333,11.7166070970191,30.8175705514945,8.04814957530751,0.039982046122697,4,15.5,29.9
3.66666666666667,11.7146993692781,31.086498314747,8.08788092972465,0.0397313544171389,4,15.5,29.9
3.7,11.7127617288766,31.3567461341002,8.12736397235232,0.0394830426276744,4,15.5,29.9
3.73333333333333,11.7107939616704,31.6283057493541,8.16659867378856,0.0392347014362322,4,15.5,29.9
3.76666666666667,11.7087958571402,31.901168617209,8.20556571248914,0.0389670387005836,4,15.5,29.9
3.8,11.7067672117503,32.1753254422452,8.24424537756787,0.0386796650787318,4,15.5,29.9
3.83333333333333,11.7047078269483,32.4507664926407,8.28263023879947,0.0383848612315969,4,15.5,29.9
3.86666666666667,11.702617507123,32.727481910791,8.3207193596113,0.0380891208118328,4,15.5,29.9
3.9,11.7004960594254,33.0054617520711,8.35850425398946,0.0377848943781611,4,15.5,29.9
3.93333333333333,11.6983432970324,33.2846955482699,8.39596694861207,0.0374626946226115,4,15.5,29.9
3.96666666666667,11.6961590384455,33.5651724278389,8.43310142487121,0.0371344762591352,4,15.5,29.9
4,11.6939431051609,33.8468814515743,8.46990875546181,0.0368073305905998,4,15.5,29.9
4.03333333333333,11.6916953205173,34.1298117762463,8.50639313788956,0.0364843824277479,4,15.5,29.9
4.06666666666667,11.6894155101366,34.4139526001349,8.54254854980007,0.0361554119105119,4,15.5,29.9
4.1,11.6871035057583,34.6992926670206,8.57835985919851,0.0358113093984382,4,15.5,29.9
4.13333333333333,11.6847591439345,34.9858204516956,8.61382409574648,0.0354642365479734,4,15.5,29.9
4.16666666666667,11.6823822661535,35.273524159251,8.64892558473061,0.0351014889841341,4,15.5,29.9
4.2,11.679972720732,35.5623914982754,8.68365582815559,0.0347302434249723,4,15.5,29.9
4.23333333333333,11.6775303604143,35.8524100033191,8.71800628514357,0.0343504569879869,4,15.5,29.9
4.26666666666667,11.6750550459105,36.1435666102857,8.75195217578879,0.0339458906452208,4,15.5,29.9
4.3,11.6725466472698,36.4358475135132,8.78547718291066,0.0335250071218631,4,15.5,29.9
4.33333333333333,11.670005040386,36.7292386210896,8.81857995641703,0.0331027735063767,4,15.5,29.9
4.36666666666667,11.6674301035325,37.0237259891853,8.85126995736815,0.0326900009511135,4,15.5,29.9
4.4,11.6648217149943,37.3192961072714,8.88356305790865,0.0322931005405032,4,15.5,29.9
4.43333333333333,11.6621797516992,37.6159360513064,8.91547809752259,0.031915039613942,4,15.5,29.9
4.46666666666667,11.6595040885918,37.9136335407352,8.94703454098381,0.0315564434612163,4,15.5,29.9
4.5,11.6567945984953,38.212376933402,8.97825105481461,0.0312165138307989,4,15.5,29.9
4.53333333333333,11.6540511522604,38.5121551848312,9.00914475212874,0.0308936973141289,4,15.5,29.9
4.56666666666667,11.6512736190604,38.812957790312,9.03973088300854,0.0305861308798026,4,15.5,29.9
4.6,11.6484618667433,39.1147747216437,9.07002279972464,0.0302919167160969,4,15.5,29.9
