Time,x_ego,y_ego,velocity,acceleration,action,x_ped,y_ped
0,11.8,15.9,7,0,1,15.5,29.9
0.0333333333333333,11.7999958626057,16.133270379388,6.99615578798827,-0.00384421201173346,1,15.3694444444444,29.9
0.0666666666666667,11.7999699749077,16.3664065985632,6.99196956449683,-0.00418622349144027,1,15.2444444444444,29.9
0.1,11.7999083255866,16.5994007530459,6.98769530617199,-0.0042742583248323,1,15.125,29.9
0.133333333333333,11.7998036489783,16.8322537753585,6.98349832302705,-0.00419698314494887,1,15.0111111111111,29.9
0.166666666666667,11.7996534112375,17.0649678503829,6.97935692507436,-0.0041413979526812,1,14.9027777777778,29.9
0.2,11.7994580058159,17.2975445485289,6.97525554494511,-0.0041013801292582,1,14.8,29.9
0.233333333333333,11.7992193711075,17.5299850007169,6.97118303264894,-0.0040725122961689,1,14.7027777777778,29.9
0.266666666666667,11.7989400759027,17.762290023919,6.96713141630288,-0.00405161634605378,1,14.6111111111111,29.9
0.3,11.7986228065786,17.9944602109532,6.96309500067788,-0.00403641562500034,1,14.525,29.9
0.333333333333333,11.7982701359474,18.2264959945618,6.95906971568206,-0.00402528499581845,1,14.4444444444444,29.9
0.366666666666667,11.797884447817,18.4583976930829,6.95505264962064,-0.00401706606142405,1,14.3694444444444,29.9
0.4,11.7974679173539,18.6901655429882,6.95104171716411,-0.0040109324565254,1,14.3,29.9
0.433333333333333,11.7970224876201,18.9217997220498,6.94703542386621,-0.00400629329790192,1,14.2361111111111,29.9
0.466666666666667,11.7965498222013,19.1533003658191,6.94303269894893,-0.00400272491728693,1,14.1777777777778,29.9
0.5,11.7960512427742,19.3846675793402,6.93903277599446,-0.00399992295446605,1,14.125,29.9
0.533333333333333,11.7955276746747,19.615901445485,6.93503510724087,-0.0039976687535912,1,14.0777777777778,29.9
0.566666666666667,11.7949796239115,19.8470020309164,6.93103930162673,-0.00399580561414048,1,14.0361111111111,29.9
0.6,11.7944071997981,20.0779693904004,6.92704507987045,-0.00399422175628139,1,14,29.9
0.633333333333333,11.7938101839762,20.3088035699768,6.92305224198062,-0.00399283788982974,1,13.9694444444444,29.9
0.666666666666667,11.7931881903966,20.5394755437984,6.91731674358572,-0.00573549839490006,1,13.9444444444444,29.9
0.7,11.7925408530875,20.7698985186486,6.90811661058647,-0.00920013299925149,1,13.925,29.9
0.733333333333333,11.7918679640193,20.999928307082,6.89373016533079,-0.0143864452556794,1,13.9111111111111,29.9
0.766666666666667,11.7911699861313,21.2291900348078,6.86203803691832,-0.031692128412466,3,13.9027777777778,29.9
0.8,11.7904484737526,21.4569630086646,6.80441035710072,-0.0576276798176032,3,13.9,29.9
0.833333333333333,11.7897062581843,21.6821807677067,6.70873092057493,-0.0956794365257867,3,13.9,29.9
0.866666666666667,11.7889464718332,21.9038634917012,6.59231387502974,-0.116417045545187,3,13.9,29.9
0.9,11.7881713770192,22.12155033691,6.46898388454294,-0.123329990486808,3,13.9,29.9
0.933333333333333,11.7873829596098,22.3350112661735,6.33876519361927,-0.13021869092367,3,13.9,29.9
0.966666666666667,11.786583534721,22.5439876107719,6.19991596130932,-0.138849232309946,3,13.9,29.9
1,11.7857756922096,22.7481917016894,6.05243810646988,-0.147477854839435,3,13.9,29.9
1.03333333333333,11.7849620718977,22.9473649962735,5.89807714031827,-0.154360966151613,3,13.9,29.9
1.06666666666667,11.7841455079233,23.1412203009503,5.73336815304354,-0.16470898727473,3,13.9,29.9
1.1,11.7833290100915,23.3294414089625,5.5600345253162,-0.173333627727341,3,13.9,29.9
1.13333333333333,11.7825152624518,23.5118273356821,5.38326534988788,-0.17676917542832,3,13.9,29.9
1.16666666666667,11.7817067902888,23.6882348970297,5.20133882066306,-0.181926529224817,3,13.9,29.9
1.2,11.7809063564921,23.8584635293179,5.01253328150028,-0.188805539162781,3,13.9,29.9
1.23333333333333,11.7801170910245,24.0222262249225,4.81338343847488,-0.199149843025401,3,13.9,29.9
1.26666666666667,11.7793419578058,24.1792934139975,4.61080079219719,-0.202582646277691,3,13.9,29.9
1.3,11.7785835179992,24.3295507214541,4.40478600844357,-0.206014783753623,3,13.9,29.9
1.33333333333333,11.7778442366128,24.4729119063481,4.1970015499167,-0.207784458526869,3,13.9,29.9
1.36666666666667,11.7771263487145,24.6093454182694,3.98912732042464,-0.207874229492055,3,13.9,29.9
1.4,11.776431931518,24.7388490865656,3.78120984537899,-0.207917475045653,3,13.9,29.9
1.43333333333333,11.7757629943833,24.8614220451659,3.57328232387289,-0.207927521506105,3,13.9,29.9
1.46666666666667,11.7751214596163,24.9770643566591,3.365368338942,-0.207913984930885,3,13.9,29.9
1.5,11.7745092784171,25.0857476771629,3.15574059182199,-0.209627747120009,3,13.9,29.9
1.53333333333333,11.7739282953699,25.1874441331431,2.94615483397146,-0.209585757850528,3,13.9,29.9
1.56666666666667,11.773380113421,25.2821552492425,2.7366191364867,-0.209535697484761,3,13.9,29.9
1.6,11.7728663567665,25.3698540788364,2.52541680676727,-0.211202329719428,3,13.9,29.9
1.63333333333333,11.772388676009,25.4504851359024,2.31255162818874,-0.212865178578533,3,13.9,29.9
1.66666666666667,11.771948441914,25.5240225167879,2.09988969121003,-0.212661936978709,3,13.9,29.9
1.7,11.7715465809373,25.5904950266789,1.88900179192597,-0.210887899284064,3,13.9,29.9
1.73333333333333,11.7711835751166,25.6499874551182,1.68117959976768,-0.207822192158286,3,13.9,29.9
1.76666666666667,11.7708594908047,25.7026374682748,1.47848123279988,-0.202698366967805,3,13.9,29.9
1.8,11.7705742181797,25.748589995025,1.2793423484409,-0.199138884358982,3,13.9,29.9
1.83333333333333,11.7703273583235,25.7880230223151,1.08730726985914,-0.192035078581753,3,13.8991319444444,29.9
1.86666666666667,11.7701182481328,25.8211455290332,0.900741398376619,-0.186565871482523,3,13.8965277777778,29.9
1.9,11.7699458042635,25.8482303872061,0.725043193490879,-0.17569820488574,3,13.8921875,29.9
1.93333333333333,11.7698078309728,25.8697531187619,0.566978617976499,-0.15806457551438,3,13.8861111111111,29.9
1.96666666666667,11.7697006072962,25.8864730913053,0.436859311481792,-0.130119306494707,3,13.8782986111111,29.9
2,11.7696196120024,25.8992906253079,0.332778301673099,-0.104081009808693,3,13.86875,29.9
2.03333333333333,11.7695607441278,25.9090099396365,0.250900937922942,-0.0818773637501572,3,13.8574652777778,29.9
2.06666666666667,11.7695212564132,25.9161621728112,0.178717638892005,-0.0721832990309376,3,13.8444444444444,29.9
2.1,11.7695000362141,25.9209506742317,0.109140420784058,-0.0695772181079461,3,13.8296875,29.9
2.13333333333333,11.7694967160952,25.923430473807,0.0405953305579347,-0.0685450902261238,3,13.8131944444444,29.9
2.16666666666667,11.7695099015115,25.9238610620124,0.00845374453450268,-0.032141586023432,3,13.7949652777778,29.9
2.2,11.7695316843073,25.9237921245752,0.00929198095831975,0.000838236423817078,5,13.775,29.9
2.23333333333333,11.7695595025455,25.9237232172961,0.0105572924424007,0.00126531148408093,5,13.7532986111111,29.9
2.26666666666667,11.7695595025455,25.9237232172961,0.0119341022206507,0.00137680977825005,5,13.7298611111111,29.9
2.3,11.7695595025455,25.9237232172961,0.0130201906981595,0.00108608847750877,5,13.7046875,29.9
2.33333333333333,11.7695595025455,25.9237232172961,0.013694458253492,0.000674267555332484,5,13.6777777777778,29.9
2.36666666666667,11.7695595025455,25.9237232172961,0.0138667569453293,0.000172298691837347,5,13.6491319444444,29.9
2.4,11.7695595025455,25.9237232172961,0.0134866068415674,-0.000380150103761939,5,13.61875,29.9
2.43333333333333,11.7695595025455,25.9237232172961,0.0125470996054396,-0.000939507236127757,5,13.5866319444444,29.9
2.46666666666667,11.7695595025455,25.9237232172961,0.0110842982201587,-0.00146280138528093,5,13.5527777777778,29.9
2.5,11.7695595025455,25.9237232172961,0.00917276787149734,-0.00191153034866136,5,13.5171875,29.9
2.53333333333333,11.7695595025455,25.9237232172961,0.00691809853880197,-0.00225466933269537,5,13.4798611111111,29.9
2.56666666666667,11.7695595025455,25.9237232172961,0.00444740376801246,-0.00247069477078951,5,13.4407986111111,29.9
2.6,11.7695595025455,25.9237232172961,0.00189880902814444,-0.00254859473986802,5,13.4,29.9
2.63333333333333,11.7695595025455,25.9237232172961,0.00058911050373455,-0.00130969852440989,5,13.3574652777778,29.9
2.66666666666667,11.7695595025455,25.9237232172961,0.00288710236497568,0.00229799186124113,5,13.3131944444444,29.9
2.7,11.7695595025455,25.9237232172961,0.00488354570253507,0.00199644333755939,5,13.2671875,29.9
2.73333333333333,11.7695595025455,25.9237232172961,0.00649081738268332,0.00160727168014825,5,13.2194444444444,29.9
2.76666666666667,11.7695595025455,25.9237232172961,0.00764944001111179,0.00115862262842847,5,13.1699652777778,29.9
2.8,11.7695595025455,25.9237232172961,0.00832993371145425,0.000680493700342457,5,13.11875,29.9
2.83333333333333,11.7695595025455,25.9237232172961,0.00853247050033903,0.000202536788884787,5,13.0657986111111,29.9
2.86666666666667,11.7695595025455,25.9237232172961,0.0082845769793973,-0.000247893520941737,5,13.0111111111111,29.9
2.9,11.7695595025455,25.9237232172961,0.00763724148802399,-0.000647335491373306,5,12.9546875,29.9
2.93333333333333,11.7695595025455,25.9237232172961,0.00665985297138845,-0.000977388516635539,5,12.8965277777778,29.9
2.96666666666667,11.7695595025455,25.9237232172961,0.00543443093574318,-0.00122542203564527,5,12.8366319444444,29.9
3,11.7695595025455,25.9237232172961,0.00404960198684963,-0.00138482894889356,5,12.775,29.9
3.03333333333333,11.7695595025455,25.9237232172961,0.00259474365393847,-0.00145485833291116,5,12.7116319444444,29.9
3.06666666666667,11.7695595025455,25.9237232172961,0.00115465699107948,-0.00144008666285899,5,12.6465277777778,29.9
3.1,11.7695595025455,25.9237232172961,0.000194946909136004,-0.000959710081943478,5,12.5796875,29.9
3.13333333333333,11.7695595025455,25.9237232172961,0.00139094742430982,0.00119600051517382,5,12.5111111111111,29.9
3.16666666666667,11.7695595025455,25.9237232172961,0.00238519158176695,0.000994244157457129,5,12.4407986111111,29.9
3.2,11.7695595025455,25.9237232172961,0.00314572263732573,0.000760531055558786,5,12.36875,29.9
3.23333333333333,11.7695595025455,25.9237232172961,0.00365691105066527,0.000511188413339537,5,12.2949652777778,29.9
3.26666666666667,11.7695595025455,25.9237232172961,0.00391860242611972,0.000261691375454449,5,12.2194444444444,29.9
3.3,11.7695595025455,25.9237232172961,0.0039444453429576,2.58429168378859e-05,5,12.1421875,29.9
3.33333333333333,11.7695595025455,25.9237232172961,0.00375959396158799,-0.000184851381369615,5,12.0631944444444,29.9
3.36666666666667,11.7695595025455,25.9237232172961,0.00339799591669497,-0.000361598044893017,5,11.9824652777778,29.9
3.4,11.7695595025455,25.9237232172961,0.00289947640589355,-0.000498519510801421,5,11.9,29.9
3.43333333333333,11.7695595025455,25.9237232172961,0.00230681650002637,-0.000592659905867183,5,11.8157986111111,29.9
3.46666666666667,11.7695595025455,25.9237232172961,0.00166300007873793,-0.00064381642128844,5,11.7298611111111,29.9
3.5,11.7695595025455,25.9237232172961,0.00100877231895139,-0.000654227759786535,5,11.6421875,29.9
3.53333333333333,11.7695595025455,25.9237232172961,0.000380616333308386,-0.000628155985643008,5,11.5527777777778,29.9
3.56666666666667,11.7695595025455,25.9237232172961,0.000190783725842691,-0.000189832607465695,5,11.4616319444444,29.9
3.6,11.7695595025455,25.9237232172961,0.000681562377492683,0.000490778651649991,5,11.36875,29.9
3.63333333333333,11.7695595025455,25.9237232172961,0.00107517929118628,0.000393616913693597,5,11.2741319444444,29.9
3.66666666666667,11.7695595025455,25.9237232172961,0.001362446482612,0.00028726719142572,5,11.1777777777778,29.9
3.7,11.7695595025455,25.9237232172961,0.00154113426540672,0.00017868778279472,5,11.0796875,29.9
3.73333333333333,11.7695595025455,25.9237232172961,0.0016152314929895,7.40972275827803e-05,5,10.9798611111111,29.9
3.76666666666667,11.7695595025455,25.9237232172961,0.00159394632782249,-2.12851651670075e-05,5,10.8782986111111,29.9
3.8,11.7695595025455,25.9237232172961,0.00149053793992143,-0.000103408387901065,5,10.775,29.9
3.83333333333333,11.7695595025455,25.9237232172961,0.00132106777972653,-0.000169470160194897,5,10.6699652777778,29.9
3.86666666666667,11.7695595025455,25.9237232172961,0.0011031522882622,-0.000217915491464327,5,10.5631944444444,29.9
3.9,11.7695595025455,25.9237232172961,0.000854788179386343,-0.000248364108875861,5,10.4546875,29.9
3.93333333333333,11.7695595025455,25.9237232172961,0.000593307926362953,-0.00026148025302339,5,10.3444444444444,29.9
3.96666666666667,11.7695595025455,25.9237232172961,0.000334507986944947,-0.000258799939418006,5,10.2324652777778,29.9
4,11.7695595025455,25.9237232172961,9.19767210691665e-05,-0.000242531265875781,5,10.11875,29.9
4.03333333333333,11.7695595025455,25.9237232172961,0.000123366117505135,3.13893964359688e-05,5,10.0032986111111,29.9
4.06666666666667,11.7695595025455,25.9237232172961,0.000303520177106219,0.000180154059601084,5,9.88611111111111,29.9
4.1,11.7695595025455,25.9237232172961,0.00044345923642982,0.000139939059323601,5,9.7671875,29.9
4.13333333333333,11.7695595025455,25.9237232172961,0.000541012908231746,9.7553671801926e-05,5,9.64652777777778,29.9
4.16666666666667,11.7695595025455,25.9237232172961,0.000596605149805904,5.55922415741583e-05,5,9.52413194444444,29.9
4.2,11.7695595025455,25.9237232172961,0.000612883551285598,1.62784014796932e-05,5,9.4,29.9
4.23333333333333,11.7695595025455,25.9237232172961,0.000594274987093376,-1.86085641922215e-05,5,9.27413194444444,29.9
4.26666666666667,11.7695595025455,25.9237232172961,0.000546502559839634,-4.77724272537422e-05,5,9.14652777777778,29.9
4.3,11.7695595025455,25.9237232172961,0.000476096192613399,-7.04063672262346e-05,5,9.0171875,29.9
4.33333333333333,11.7695595025455,25.9237232172961,0.000389925150948892,-8.61710416645072e-05,5,8.88611111111111,29.9
4.36666666666667,11.7695595025455,25.9237232172961,0.000294775645243159,-9.51495057057331e-05,5,8.75329861111111,29.9
4.4,11.7695595025455,25.9237232172961,0.000196990922394354,-9.77847228488047e-05,5,8.61875,29.9
4.43333333333333,11.7695595025455,25.9237232172961,0.000102185319119282,-9.48056032750724e-05,5,8.48246527777778,29.9
4.46666666666667,11.7695595025455,25.9237232172961,1.50379881556133e-05,-8.71473309636686e-05,5,8.34444444444444,29.9
4.5,11.7695595025455,25.9237232172961,6.08332709455497e-05,4.57952827899364e-05,5,8.2046875,29.9
4.53333333333333,11.7695595025455,25.9237232172961,0.000122922207423074,6.20889364775246e-05,5,8.06319444444444,29.9
4.56666666666667,11.7695595025455,25.9237232172961,0.00016981615819941,4.68939507763361e-05,5,7.91996527777778,29.9
4.6,11.7695595025455,25.9237232172961,0.000201120469693593,3.13043114941821e-05,5,7.775,29.9
4.63333333333333,11.7695595025455,25.9237232172961,0.000217337583339018,1.62171136454252e-05,5,7.62829861111111,29.9
4.66666666666667,11.7695595025455,25.9237232172961,0.000219713865968333,2.3762826293149e-06,5,7.47986111111111,29.9
4.7,11.7695595025455,25.9237232172961,0.000210067214865694,-9.64665110263812e-06,5,7.3296875,29.9
4.73333333333333,11.7695595025455,25.9237232172961,0.000190607689287075,-1.94595255786194e-05,5,7.17777777777778,29.9
4.76666666666667,11.7695595025455,25.9237232172961,0.000163762064277888,-2.68456250091875e-05,5,7.02413194444444,29.9
4.8,11.7695595025455,25.9237232172961,0.000132011428871889,-3.17506354059989e-05,5,6.86875,29.9
4.83333333333333,11.7695595025455,25.9237232172961,9.77489200363106e-05,-3.42625088355782e-05,5,6.71163194444444,29.9
4.86666666666667,11.7695595025455,25.9237232172961,6.31625480875149e-05,-3.45863719487957e-05,5,6.55277777777778,29.9
4.9,11.7695595025455,25.9237232172961,3.01459645831046e-05,-3.30165835044103e-05,5,6.3921875,29.9
4.93333333333333,11.7695595025455,25.9237232172961,2.38064120935761e-07,-2.99079004621689e-05,5,6.22986111111111,29.9
4.96666666666667,11.7695595025455,25.9237232172961,2.54094137208057e-05,2.51713495998699e-05,5,6.06579861111111,29.9
5,11.7695595025455,25.9237232172961,4.60385440514973e-05,2.06291303306916e-05,5,5.9,29.9
5.03333333333333,11.7695595025455,25.9237232172961,6.12694937163896e-05,1.52309496648923e-05,5,5.9,29.9
5.06666666666667,11.7695595025455,25.9237232172961,0.000169678948529862,0.000108409454813473,5,5.9,29.9
5.1,11.7695559624558,25.924425445786,0.0407001997485767,0.0405305208000468,4,5.9,29.9
5.13333333333333,11.7695448246623,25.9266344976875,0.0917588796389502,0.0510586798903735,4,5.9,29.9
5.16666666666667,11.7695251399718,25.9305343066417,0.142102457560877,0.0503435779219265,4,5.9,29.9
5.2,11.7694969935739,25.9360965063656,0.191477585436272,0.049375127875395,4,5.9,29.9
5.23333333333333,11.7694604556665,25.943285715643,0.23971202713876,0.0482344417024885,4,5.9,29.9
5.26666666666667,11.7694155540488,25.9520624668688,0.286747107932204,0.0470350807934436,4,5.9,29.9
5.3,11.7693622421408,25.9623876810465,0.332639533172736,0.0458924252405324,4,5.9,29.9
5.33333333333333,11.7693003852923,25.9742242498206,0.37744235330623,0.0448028201334936,4,5.9,29.9
5.36666666666667,11.7692297610297,25.9875366685005,0.421198349382729,0.0437559960764996,4,5.9,29.9
5.4,11.7691500634757,26.0022907277907,0.463942767422913,0.0427444180401833,4,5.9,29.9
5.43333333333333,11.769060912767,26.0184531392959,0.505692286233473,0.0417495188105601,4,5.9,29.9
5.46666666666667,11.7689618714439,26.0359907024179,0.546442648566148,0.0407503623326751,4,5.9,29.9
5.5,11.768852461952,26.0548701274654,0.586196082637922,0.039753434071774,4,5.9,29.9
5.53333333333333,11.7687321858736,26.0750582813582,0.624961172027009,0.0387650893890871,4,5.9,29.9
5.56666666666667,11.7686005464585,26.0965223722031,0.66275080792663,0.0377896358996213,4,5.9,29.9
5.6,11.7684570501636,26.1192300883648,0.699582950563629,0.0368321426369986,4,5.9,29.9
5.63333333333333,11.7683011308001,26.1431501827144,0.73550830451469,0.0359253539510612,4,5.9,29.9
5.66666666666667,11.7681320954864,26.1682534708078,0.770590404913891,0.0350821003992012,4,5.9,29.9
5.7,11.7679490466517,26.1945127003593,0.804880674614347,0.034290269700456,4,5.9,29.9
5.73333333333333,11.7677509757862,26.2219038746079,0.838611346379491,0.0337306717651437,4,5.9,29.9
5.76666666666667,11.7675367202418,26.2504229038857,0.872799965959614,0.034188619580123,4,5.9,29.9
5.8,11.7673048774883,26.2801129749828,0.909207940548833,0.0364079745892187,4,5.9,29.9
5.83333333333333,11.7670539460735,26.311079709215,0.949697211595669,0.0404892710468362,4,5.9,29.9
5.86666666666667,11.7667825820324,26.3434866672969,0.995867001579067,0.0461697899833984,4,5.9,29.9
5.9,11.766489701864,26.37754586693,1.04903768201191,0.0531706804328403,4,5.9,29.9
5.93333333333333,11.7661744501839,26.4135095890196,1.11029842116237,0.0612607391504596,4,5.9,29.9
5.96666666666667,11.7658359808173,26.4516606573317,1.18036429681829,0.070065875655922,4,5.9,29.9
6,11.7654734558411,26.4922991622738,1.25958423651744,0.0792199396991484,4,5.9,29.9
6.03333333333333,11.7650863021935,26.5357320030925,1.34800481867515,0.088420582157708,4,5.9,29.9
6.06666666666667,11.7646741777427,26.582260665183,1.44524874183895,0.0972439231638027,4,5.9,29.9
6.1,11.7642365639608,26.6321696386478,1.55073353221638,0.105484790377434,4,5.9,29.9
6.13333333333333,11.7637725277802,26.6857234857022,1.6638465365198,0.113113004303418,4,5.9,29.9
6.16666666666667,11.7632805717636,26.7431654974275,1.78391459954853,0.120068063028725,4,5.9,29.9
6.2,11.7627585339532,26.8047144522139,1.91013027956586,0.126215680017337,4,5.9,29.9
6.23333333333333,11.7622035517578,26.8705605115042,2.04160546598214,0.131475186416276,4,5.9,29.9
6.26666666666667,11.7616120884506,26.9408631840162,2.17735432366777,0.135748857685634,4,5.9,29.9
6.3,11.7609800641385,27.0157460280952,2.31624446506636,0.138890141398591,4,5.9,29.9
6.33333333333333,11.7603030410695,27.0952959163436,2.45722097993966,0.140976514873293,4,5.9,29.9
6.36666666666667,11.7595767723079,27.1795658863076,2.59930272154751,0.142081741607857,4,5.9,29.9
6.4,11.7587984500155,27.2685772454661,2.74156943266026,0.142266711112745,4,5.9,29.9
6.43333333333333,11.7579659800694,27.3623227723592,2.88326188108183,0.141692448421568,4,5.9,29.9
