Time,x_ego,y_ego,velocity,acceleration,action,x_ped,y_ped
0,11.8,8.9,7,0,1,15.5,29.9
0.0333333333333333,11.8,9.13327037939431,6.99615577953002,-0.00384422046998356,1,15.3694444444444,29.9
0.0666666666666667,11.8,9.36640659881126,6.99196947109348,-0.00418630843653833,1,15.2444444444444,29.9
0.1,11.8,9.59940075527911,6.98769498718995,-0.00427448390352669,1,15.125,29.9
0.133333333333333,11.8,9.83225378528415,6.9834976545359,-0.00419733265404787,1,15.0111111111111,29.9
0.166666666666667,11.8,10.0649678802301,6.97935585456763,-0.00414179996826913,1,14.9027777777778,29.9
0.2,11.8,10.2975446186632,6.97525409491249,-0.00410175965514537,1,14.8,29.9
0.233333333333333,11.8,10.5299851399444,6.97118127319767,-0.00407282171482137,1,14.7027777777778,29.9
0.266666666666667,11.8,10.7622902687052,6.96712943294736,-0.00405184025031069,1,14.6111111111111,29.9
0.3,11.8,10.9944606040335,6.96309287213007,-0.00403656081728965,1,14.525,29.9
0.333333333333333,11.79999752117,11.226496583384,6.95906750745463,-0.00402536467543868,1,14.4444444444444,29.9
0.366666666666667,11.7999803665036,11.4583985282827,6.95505044992968,-0.00401705752494586,1,14.3694444444444,29.9
0.4,11.7999307121618,11.6901666763719,6.95103973062823,-0.00401071930145314,1,14.3,29.9
0.433333333333333,11.7998257818393,11.9218012023822,6.94703409887545,-0.00400563175278013,1,14.2361111111111,29.9
0.466666666666667,11.7996407136114,12.1533022299717,6.94303276240624,-0.00400133646921041,1,14.1777777777778,29.9
0.5,11.7993534326446,12.3846698377507,6.93903512240927,-0.00399763999697278,1,14.125,29.9
0.533333333333333,11.7989468802701,12.6159040636932,6.93504047510991,-0.00399464729935417,1,14.0777777777778,29.9
0.566666666666667,11.7984136577405,12.8470049143467,6.93104793230771,-0.00399254280220251,1,14.0361111111111,29.9
0.6,11.7977539271243,13.07797237747,6.9270567304326,-0.00399120187510871,1,14,29.9
0.633333333333333,11.7969721965967,13.3088064341901,6.92306635883424,-0.00399037159836446,1,13.9694444444444,29.9
0.666666666666667,11.7960750643068,13.539507068121,6.9190765629991,-0.00398979583513803,1,13.9444444444444,29.9
0.7,11.7950698099801,13.7700742704938,6.91508727346526,-0.00398928953383848,1,13.925,29.9
0.733333333333333,11.79396361092,14.0005076784865,6.91107672219004,-0.0040105512752211,1,13.9111111111111,29.9
0.766666666666667,11.7927636995603,14.230604932781,6.89494670428656,-0.0161300179034827,1,13.9027777777778,29.9
0.8,11.7914773708913,14.459962436721,6.86672070162387,-0.0282260026626826,3,13.9,29.9
0.833333333333333,11.7901115909421,14.6881479552212,6.82465675380192,-0.0420639478219584,3,13.9,29.9
0.866666666666667,11.7886729795796,14.9147002616838,6.7687572048834,-0.0558995489185117,3,13.9,29.9
0.9,11.7871673339254,15.1392446795596,6.70421265796475,-0.0645445469186532,3,13.9,29.9
0.933333333333333,11.7855994153871,15.3615221360173,6.63276895495627,-0.0714437030084811,3,13.9,29.9
0.966666666666667,11.7839732728647,15.5813026790573,6.55442776551284,-0.0783411894434316,3,13.9,29.9
1,11.7822927693394,15.7982982764299,6.46570286267868,-0.0887249028341595,3,13.9,29.9
1.03333333333333,11.7805614889252,16.0122209535438,6.37008396051246,-0.0956189021662155,3,13.9,29.9
1.06666666666667,11.7787826515335,16.2228409203099,6.26757249353071,-0.102511466981748,3,13.9,29.9
1.1,11.7769592797545,16.4299858391888,6.16161396972451,-0.105958523806203,3,13.9,29.9
1.13333333333333,11.7750949255462,16.6334543468231,6.047021047778,-0.11459292194651,3,13.9,29.9
1.16666666666667,11.7731936180508,16.8330451253668,5.92898309708409,-0.118037950693908,3,13.9,29.9
1.2,11.7712595642346,17.0286146632968,5.80577864954866,-0.123204447535432,3,13.9,29.9
1.23333333333333,11.76929728448,17.2200485488629,5.68087448285206,-0.124904166696601,3,13.9,29.9
1.26666666666667,11.7673113071943,17.4072901631561,5.55427096126936,-0.126603521582702,3,13.9,29.9
1.3,11.7653066950821,17.590253840524,5.42422451100583,-0.130046450263523,3,13.9,29.9
1.33333333333333,11.7632889379625,17.7688248688589,5.29073566058276,-0.133488850423076,3,13.9,29.9
1.36666666666667,11.7612636166052,17.9428885542481,5.15380496623303,-0.136930694349727,3,13.9,29.9
1.4,11.7592363137348,18.1123305825824,5.01345478243355,-0.140350183799483,3,13.9,29.9
1.43333333333333,11.7572122964652,18.2770653560503,4.87138594684397,-0.142068835589575,3,13.9,29.9
1.46666666666667,11.7551967534348,18.4370072869392,4.72589842383885,-0.145487523005122,3,13.9,29.9
1.5,11.7531950789974,18.5920420963933,4.57697076286459,-0.148927660974266,3,13.9,29.9
1.53333333333333,11.7512120654937,18.7421119167777,4.42798180777852,-0.14898895508607,3,13.9,29.9
1.56666666666667,11.7492519143055,18.8872133289467,4.27888338045206,-0.149098427326458,3,13.9,29.9
1.6,11.7473190790839,19.0273148317595,4.12799949374748,-0.150883886704581,3,13.9,29.9
1.63333333333333,11.7454179647845,19.1623862385517,3.97708543256237,-0.150914061185111,3,13.9,29.9
1.66666666666667,11.7435526099909,19.2924270042593,3.82616478039075,-0.150920652171614,3,13.9,29.9
1.7,11.7417269664881,19.4174372537819,3.6752543391383,-0.150910441252456,3,13.9,29.9
1.73333333333333,11.739944867721,19.5374175885646,3.52436606247641,-0.150888276661887,3,13.9,29.9
1.76666666666667,11.7382099970778,19.6523689477983,3.37350843683719,-0.150857625639217,3,13.9,29.9
1.8,11.7365265632188,19.7622347444816,3.21922141776389,-0.154287019073307,3,13.9,29.9
1.83333333333333,11.7348979060002,19.8670163316225,3.06844176382592,-0.150779653937967,3,13.8991319444444,29.9
1.86666666666667,11.7333264802671,19.9667729437667,2.91770613342135,-0.150735630404572,3,13.8965277777778,29.9
1.9,11.731815990392,20.0614483619399,2.76355042599219,-0.154155707429154,3,13.8921875,29.9
1.93333333333333,11.7303699999655,20.1509864268631,2.60944242066315,-0.154108005329041,3,13.8861111111111,29.9
1.96666666666667,11.7289916014558,20.235360086188,2.45366101427123,-0.155781406391917,3,13.8782986111111,29.9
2,11.7276834042314,20.3145710177332,2.29965130593785,-0.15400970833339,3,13.86875,29.9
2.03333333333333,11.7264474567111,20.3886500433097,2.14577469215058,-0.153876613787264,3,13.8574652777778,29.9
2.06666666666667,11.7252857205955,20.4576171529225,1.99319318626523,-0.152581505885349,3,13.8444444444444,29.9
2.1,11.7241993096888,20.5215384268731,1.84309115786078,-0.150102028404456,3,13.8296875,29.9
2.13333333333333,11.723189177713,20.5804745713132,1.69407002019064,-0.149021137670136,3,13.8131944444444,29.9
2.16666666666667,11.722255984112,20.6344911618561,1.54788498189818,-0.146185038292458,3,13.7949652777778,29.9
2.2,11.7213997704302,20.6836830651098,1.40454905580445,-0.143335926093735,3,13.775,29.9
2.23333333333333,11.7206207831804,20.7281158815519,1.26230151025666,-0.142247545547784,3,13.7532986111111,29.9
2.26666666666667,11.7199186889508,20.7678836011647,1.12459593067176,-0.137705579584907,3,13.7298611111111,29.9
2.3,11.719293007743,20.8030791326811,0.987946975420753,-0.136648955251003,3,13.7046875,29.9
2.33333333333333,11.7187434848717,20.8337690208179,0.854243510006183,-0.13370346541457,3,13.6777777777778,29.9
2.36666666666667,11.7182692750317,20.8600525836405,0.723510790799937,-0.130732719206247,3,13.6491319444444,29.9
2.4,11.717869454524,20.8820266571883,0.595621316368828,-0.127889474431109,3,13.61875,29.9
2.43333333333333,11.7175430338311,20.8997856244869,0.470580080048894,-0.125041236319934,3,13.5866319444444,29.9
2.46666666666667,11.7172889133226,20.9134253307191,0.348430572924802,-0.122149507124092,3,13.5527777777778,29.9
2.5,11.7171059198496,20.9230413039729,0.229109735402568,-0.119320837522234,3,13.5171875,29.9
2.53333333333333,11.7169932642521,20.9286978846146,0.110869401285735,-0.118240334116832,3,13.4798611111111,29.9
2.56666666666667,11.7169500582087,20.9304625469667,0.0108220748704901,-0.100047326415245,3,13.4407986111111,29.9
2.6,11.7169622926372,20.9293070194634,0.0497279516669047,0.0389058767964147,4,13.4,29.9
2.63333333333333,11.7169941053165,20.9276526033461,0.00346810188364099,-0.0462598497832637,3,13.3574652777778,29.9
2.66666666666667,11.7169941053165,20.9276526033461,0.00435313442257184,0.000885032538930849,5,13.3131944444444,29.9
2.7,11.7169941053165,20.9276526033461,0.00553666132423092,0.00118352690165908,5,13.2671875,29.9
2.73333333333333,11.7169941053165,20.9276526033461,0.00690783256148253,0.00137117123725161,5,13.2194444444444,29.9
2.76666666666667,11.7169941053165,20.9276526033461,0.00832289331759513,0.00141506075611259,5,13.1699652777778,29.9
2.8,11.7169941053165,20.9276526033461,0.00962693078429895,0.00130403746670383,5,13.11875,29.9
2.83333333333333,11.7169941053165,20.9276526033461,0.0106732869482204,0.00104635616392148,5,13.0657986111111,29.9
2.86666666666667,11.7169941053165,20.9276526033461,0.0113393151279546,0.000666028179734207,5,13.0111111111111,29.9
2.9,11.7169941053165,20.9276526033461,0.0115376768975887,0.000198361769634083,5,12.9546875,29.9
2.93333333333333,11.7169941053165,20.9276526033461,0.0112228704086408,-0.000314806488947899,5,12.8965277777778,29.9
2.96666666666667,11.7169941053165,20.9276526033461,0.0103931181113452,-0.000829752297295655,5,12.8366319444444,29.9
3,11.7169941053165,20.9276526033461,0.00908809828659874,-0.00130501982474644,5,12.775,29.9
3.03333333333333,11.7169941053165,20.9276526033461,0.00738326716181729,-0.00170483112478144,5,12.7116319444444,29.9
3.06666666666667,11.7169941053165,20.9276526033461,0.00538168228787831,-0.00200158487393899,5,12.6465277777778,29.9
3.1,11.7169941053165,20.9276526033461,0.00320430676602741,-0.00217737552185089,5,12.5796875,29.9
3.13333333333333,11.7169941053165,20.9276526033461,0.000979757634716126,-0.00222454913131129,5,12.5111111111111,29.9
3.16666666666667,11.7169941053165,20.9276526033461,0.00116562533446469,0.000185867699748566,5,12.4407986111111,29.9
3.2,11.7169941053165,20.9276526033461,0.00311665477694226,0.00195102944247757,5,12.36875,29.9
3.23333333333333,11.7169941053165,20.9276526033461,0.00477655487444893,0.00165990009750668,5,12.2949652777778,29.9
3.26666666666667,11.7169941053165,20.9276526033461,0.00607223731353211,0.00129568243908318,5,12.2194444444444,29.9
3.3,11.7169941053165,20.9276526033461,0.0069574201467039,0.00088518283317179,5,12.1421875,29.9
3.33333333333333,11.7169941053165,20.9276526033461,0.00741359534961482,0.000456175202910912,5,12.0631944444444,29.9
3.36666666666667,11.7169941053165,20.9276526033461,0.00744900604183831,3.54106922234925e-05,5,11.9824652777778,29.9
3.4,11.7169941053165,20.9276526033461,0.00709591736757249,-0.000353088674265819,5,11.9,29.9
3.43333333333333,11.7169941053165,20.9276526033461,0.0064065516947835,-0.000689365672788985,5,11.8157986111111,29.9
3.46666666666667,11.7169941053165,20.9276526033461,0.00544810803452596,-0.00095844366025754,5,11.7298611111111,29.9
3.5,11.7169941053165,20.9276526033461,0.00429729911831696,-0.00115080891620901,5,11.6421875,29.9
3.53333333333333,11.7169941053165,20.9276526033461,0.00303482134534588,-0.00126247777297108,5,11.5527777777778,29.9
3.56666666666667,11.7169941053165,20.9276526033461,0.00174012839771645,-0.00129469294762943,5,11.4616319444444,29.9
3.6,11.7169941053165,20.9276526033461,0.00048681530305293,-0.00125331309466352,5,11.36875,29.9
3.63333333333333,11.7169941053165,20.9276526033461,0.000661156907450347,0.000174341604397417,5,11.2741319444444,29.9
3.66666666666667,11.7169941053165,20.9276526033461,0.00165224817238035,0.000991091264930006,5,11.1777777777778,29.9
3.7,11.7169941053165,20.9276526033461,0.00244907205216968,0.000796823879789327,5,11.0796875,29.9
3.73333333333333,11.7169941053165,20.9276526033461,0.00302908398722518,0.000580011935055496,5,10.9798611111111,29.9
3.76666666666667,11.7169941053165,20.9276526033461,0.00338430078505006,0.000355216797824886,5,10.8782986111111,29.9
3.8,11.7169941053165,20.9276526033461,0.00352017948794066,0.000135878702890595,5,10.775,29.9
3.83333333333333,11.7169941053165,20.9276526033461,0.0034538214317952,-6.63580561454532e-05,5,10.6699652777778,29.9
3.86666666666667,11.7169941053165,20.9276526033461,0.00321168960344183,-0.000242131828353369,5,10.5631944444444,29.9
3.9,11.7169941053165,20.9276526033461,0.00282703491757988,-0.000384654685861957,5,10.4546875,29.9
3.93333333333333,11.7169941053165,20.9276526033461,0.00233722122586073,-0.000489813691719145,5,10.3444444444444,29.9
3.96666666666667,11.7169941053165,20.9276526033461,0.00178112186319452,-0.000556099362666214,5,10.2324652777778,29.9
4,11.7169941053165,20.9276526033461,0.00119673488489669,-0.000584386978297826,5,10.11875,29.9
4.03333333333333,11.7169941053165,20.9276526033461,0.000619132613409037,-0.000577602271487654,5,10.0032986111111,29.9
4.06666666666667,11.7169941053165,20.9276526033461,7.88264549842379e-05,-0.000540306158424799,5,9.88611111111111,29.9
4.1,11.7169941053165,20.9276526033461,0.000399407252539268,0.00032058079755503,5,9.7671875,29.9
4.13333333333333,11.7169941053165,20.9276526033461,0.000797228074697132,0.000397820822157863,5,9.64652777777778,29.9
4.16666666666667,11.7169941053165,20.9276526033461,0.00110297661418504,0.000305748539487911,5,9.52413194444444,29.9
4.2,11.7169941053165,20.9276526033461,0.00131150651630103,0.000208529902115983,5,9.4,29.9
4.23333333333333,11.7169941053165,20.9276526033461,0.00142366505282705,0.000112158536526027,5,9.27413194444444,29.9
4.26666666666667,11.7169941053165,20.9276526033461,0.00144549690642047,2.18318535934129e-05,5,9.14652777777778,29.9
4.3,11.7169941053165,20.9276526033461,0.00138725251715332,-5.82443892671431e-05,5,9.0171875,29.9
4.33333333333333,11.7169941053165,20.9276526033461,0.00126228333438421,-0.000124969182769111,5,8.88611111111111,29.9
4.36666666666667,11.7169941053165,20.9276526033461,0.00108590225471953,-0.000176381079664685,5,8.75329861111111,29.9
4.4,11.7169941053165,20.9276526033461,0.000874279345103366,-0.00021162290961616,5,8.61875,29.9
4.43333333333333,11.7169941053165,20.9276526033461,0.000643431697811119,-0.000230847647292248,5,8.48246527777778,29.9
4.46666666666667,11.7169941053165,20.9276526033461,0.000408353032219562,-0.000235078665591557,5,8.34444444444444,29.9
4.5,11.7169941053165,20.9276526033461,0.000182314506970204,-0.000226038525249358,5,8.2046875,29.9
4.53333333333333,11.7169941053165,20.9276526033461,2.36458952858427e-05,-0.000158668611684361,5,8.06319444444444,29.9
4.56666666666667,11.7169941053165,20.9276526033461,0.000201041268104394,0.000177395372818551,5,7.91996527777778,29.9
4.6,11.7169941053165,20.9276526033461,0.000344068498607678,0.000143027230503284,5,7.775,29.9
4.63333333333333,11.7169941053165,20.9276526033461,0.000449572985176469,0.000105504486568791,5,7.62829861111111,29.9
4.66666666666667,11.7169941053165,20.9276526033461,0.000516869875115924,6.72968899394544e-05,5,7.47986111111111,29.9
4.7,11.7169941053165,20.9276526033461,0.000547451251458132,3.05813763422078e-05,5,7.3296875,29.9
4.73333333333333,11.7169941053165,20.9276526033461,0.000544611228249229,-2.8400232089024e-06,5,7.17777777777778,29.9
4.76666666666667,11.7169941053165,20.9276526033461,0.00051302124648036,-3.15899817688694e-05,5,7.02413194444444,29.9
4.8,11.7169941053165,20.9276526033461,0.000458286284581165,-5.47349618991952e-05,5,6.86875,29.9
4.83333333333333,11.7169941053165,20.9276526033461,0.000386509566816758,-7.17767177644069e-05,5,6.71163194444444,29.9
4.86666666666667,11.7169941053165,20.9276526033461,0.000303889069432468,-8.26204973842895e-05,5,6.55277777777778,29.9
4.9,11.7169941053165,20.9276526033461,0.000216364098556309,-8.75249708761589e-05,5,6.3921875,29.9
4.93333333333333,11.7169941053165,20.9276526033461,0.000129324841518812,-8.70392570374973e-05,5,6.22986111111111,29.9
4.96666666666667,11.7169941053165,20.9276526033461,4.7392434169527e-05,-8.19324073492849e-05,5,6.06579861111111,29.9
5,11.7169941053165,20.9276526033461,2.57279513249911e-05,-2.16644828445358e-05,5,5.9,29.9
5.03333333333333,11.7169941053165,20.9276526033461,8.73229657833872e-05,6.15950144583961e-05,5,5.9,29.9
5.06666666666667,11.7169941053165,20.9276526033461,0.000135681586002715,4.83586202193277e-05,5,5.9,29.9
5.1,11.7169941053165,20.9276526033461,0.000170048835501956,3.43672494992412e-05,5,5.9,29.9
5.13333333333333,11.7169941053165,20.9276526033461,0.000190533279471657,2.04844439697004e-05,5,5.9,29.9
5.16666666666667,11.7169941053165,20.9276526033461,0.000197979952234345,7.44667276268875e-06,5,5.9,29.9
5.2,11.7169941053165,20.9276526033461,0.00019382066010175,-4.15929213259581e-06,5,5.9,29.9
5.23333333333333,11.7169941053165,20.9276526033461,0.00017991317106909,-1.39074890326595e-05,5,5.9,29.9
5.26666666666667,11.7169941053165,20.9276526033461,0.000158379783084358,-2.15333879847318e-05,5,5.9,29.9
5.3,11.7169941053165,20.9276526033461,0.00013145429767589,-2.6925485408468e-05,5,5.9,29.9
5.33333333333333,11.7169941053165,20.9276526033461,2.7322338392778e-06,-0.000128722063836612,5,5.9,29.9
5.36666666666667,11.7169832638555,20.9284019762468,0.0438447695532462,0.0438420373194069,4,5.9,29.9
5.4,11.7169497939003,20.9307153054919,0.0948771824635453,0.0510324129102991,4,5.9,29.9
5.43333333333333,11.7168918514979,20.9347179820403,0.145173719204097,0.0502965367405513,4,5.9,29.9
5.46666666666667,11.7168097785633,20.9403810616324,0.194487471728494,0.0493137525243977,4,5.9,29.9
5.5,11.7167039507714,20.9476687699054,0.242651826683861,0.0481643549553666,4,5.9,29.9
5.53333333333333,11.716574717909,20.956541531047,0.289618485971404,0.0469666592875427,4,5.9,29.9
5.56666666666667,11.7164223286651,20.9669603581343,0.335445057691085,0.0458265717196808,4,5.9,29.9
5.6,11.7162469038662,20.9788882225921,0.380184073722862,0.0447390160317773,4,5.9,29.9
5.63333333333333,11.7160484401323,20.9922896842541,0.423877965673278,0.0436938919504165,4,5.9,29.9
5.66666666666667,11.7158268182965,21.0071305860218,0.466561501570889,0.0426835358976111,4,5.9,29.9
5.7,11.7155818192405,21.0233776459659,0.508249509149375,0.0416880075784856,4,5.9,29.9
5.73333333333333,11.7153131515676,21.0409976397084,0.548938080002624,0.0406885708532487,4,5.9,29.9
5.76666666666667,11.7150204748973,21.059957271245,0.588629992041127,0.0396919120385035,4,5.9,29.9
5.8,11.7147034226307,21.0802234152727,0.627334216252962,0.0387042242118346,4,5.9,29.9
5.83333333333333,11.714361629327,21.1017632978891,0.665063906180766,0.0377296899278047,4,5.9,29.9
5.86666666666667,11.7139947609775,21.1245446344562,0.701837558533867,0.0367736523531008,4,5.9,29.9
5.9,11.7136025386116,21.1485362660365,0.737708535732176,0.0358709771983082,4,5.9,29.9
5.93333333333333,11.7131847555248,21.1737091410536,0.772739949936179,0.0350314142040031,4,5.9,29.9
5.96666666666667,11.7127413083728,21.2000361179814,0.806982464072384,0.0342425141362056,4,5.9,29.9
6,11.7122722257049,21.2274916022504,0.840477358901757,0.0334948948293727,4,5.9,29.9
6.03333333333333,11.7117776886888,21.2560512745519,0.873259021289461,0.0327816623877044,4,5.9,29.9
6.06666666666667,11.71125804313,21.2856918872832,0.905356754014051,0.0320977327245895,4,5.9,29.9
6.1,11.710713804317,21.3163909670688,0.936780618966429,0.0314238649523785,4,5.9,29.9
6.13333333333333,11.7101456599091,21.3481260454957,0.967555863222679,0.0307752442562492,4,5.9,29.9
6.16666666666667,11.7095543601986,21.3808808605962,0.998087180056237,0.030531316833558,4,5.9,29.9
6.2,11.7089404582288,21.4146609061205,1.0292682688218,0.0311810887655642,4,5.9,29.9
6.23333333333333,11.7083040355783,21.4495090276953,1.06243720578424,0.0331689369624404,4,5.9,29.9
6.26666666666667,11.7076444633625,21.4855177307831,1.09917278537002,0.0367355795857831,4,5.9,29.9
6.3,11.7069603190277,21.522830301315,1.14089169446262,0.0417189090925962,4,5.9,29.9
6.33333333333333,11.7062494447764,21.5616319800897,1.18868811916316,0.0477964247005442,4,5.9,29.9
6.36666666666667,11.7055090252179,21.6021395930834,1.24337985837107,0.0546917392079047,4,5.9,29.9
6.4,11.7047356324674,21.6445932607573,1.30554207151419,0.0621622131431183,4,5.9,29.9
6.43333333333333,11.7039252855236,21.6892473580427,1.37543924859369,0.0698971770794996,4,5.9,29.9
6.46666666666667,11.7030735466302,21.7363596140344,1.45303079014346,0.0775915415497737,4,5.9,29.9
6.5,11.702175591912,21.7861828822106,1.53806502413123,0.0850342339877659,4,5.9,29.9
