Time,x_ego,y_ego,velocity,acceleration,action,x_ped,y_ped
0,11.8,15.9,5,0,1,15.5,29.9
0.0333333333333333,11.8000121427159,16.066607688792,4.99642272094607,-0.00357727905393457,1,15.4502170138889,29.9
0.0666666666666667,11.8000906591753,16.2330926508306,4.99264889166593,-0.00377382928013947,1,15.4008680555556,29.9
0.1,11.8002851864367,16.3994492748651,4.98873640382276,-0.00391248784316911,1,15.351953125,29.9
0.133333333333333,11.800627975819,16.5656735198635,4.98472631638167,-0.00401008744108378,1,15.3034722222222,29.9
0.166666666666667,11.8011364115932,16.7317624526098,4.98064711778081,-0.00407919860085837,1,15.2554253472222,29.9
0.2,11.8018163513223,16.897713926746,4.97651837713831,-0.00412874064250879,1,15.2078125,29.9
0.233333333333333,11.802665495255,17.063526364068,4.97235365108114,-0.00416472605716578,1,15.1606336805556,29.9
0.266666666666667,11.8036765078185,17.2291986052381,4.96816255829102,-0.00419109279012098,1,15.1138888888889,29.9
0.3,11.8048393585663,17.3947298053952,4.96395213491219,-0.00421042337883115,1,15.067578125,29.9
0.333333333333333,11.8061425566971,17.5601193592308,4.95972739500405,-0.0042247399081381,1,15.0217013888889,29.9
0.366666666666667,11.8075722803326,17.7253668509327,4.95549191644768,-0.00423547855637274,1,14.9762586805556,29.9
0.4,11.8091135641335,17.8904720130319,4.95124853421976,-0.00424338222792198,1,14.93125,29.9
0.433333333333333,11.8107506851153,18.0554346952368,4.9469990139131,-0.00424952030665438,1,14.8866753472222,29.9
0.466666666666667,11.8124631077164,18.2202548626603,4.94274395198599,-0.004255061927112,1,14.8425347222222,29.9
0.5,11.8142217428518,18.3849326106742,4.93848350977887,-0.00426044220711841,1,14.798828125,29.9
0.533333333333333,11.8159869248777,18.5494681821407,4.93421818526977,-0.00426532450910067,1,14.7555555555556,29.9
0.566666666666667,11.8177092402735,18.7138619668805,4.92995011474996,-0.0042680705198137,1,14.7127170138889,29.9
0.6,11.8193367909666,18.8781144428315,4.92568294444482,-0.00426717030513135,1,14.6703125,29.9
0.633333333333333,11.8208197862642,19.042226108868,4.92142057465752,-0.0042623697873081,1,14.6283420138889,29.9
0.666666666666667,11.8221142194596,19.2061974115991,4.91716635516562,-0.00425421949189175,1,14.5868055555556,29.9
0.7,11.8231870356731,19.3700286626984,4.9129219785713,-0.00424437659432098,1,14.545703125,29.9
0.733333333333333,11.824016206398,19.533720008519,4.90868724039915,-0.00423473817215569,1,14.5050347222222,29.9
0.766666666666667,11.8245908686341,19.6972714236397,4.90446034817018,-0.00422689222896988,1,14.4648003472222,29.9
0.8,11.8249123513502,19.8606827231996,4.90023793558365,-0.00422241258652978,1,14.425,29.9
0.833333333333333,11.8249969599326,20.0239535887903,4.89601584347516,-0.00422209210848745,1,14.3856336805556,29.9
0.866666666666667,11.8248715629389,20.1870836536371,4.8917908660437,-0.00422497743146266,1,14.3467013888889,29.9
0.9,11.8245680772318,20.3500725819062,4.88756139956193,-0.00422946648176925,1,14.308203125,29.9
0.933333333333333,11.824119732382,20.5129201143431,4.88332702992126,-0.00423436964066681,1,14.2701388888889,29.9
0.966666666666667,11.8235599549967,20.6756260812797,4.87908827466134,-0.00423875525992568,1,14.2325086805556,29.9
1,11.8229194736558,20.8378150939765,4.85232841755678,-0.0267598571045564,3,14.1953125,29.9
1.03333333333333,11.822227125636,20.9988237942354,4.80828375431448,-0.0440446632422953,3,14.1585503472222,29.9
1.06666666666667,11.8215091227808,21.1580471407886,4.74521610497998,-0.0630676493345099,3,14.1222222222222,29.9
1.1,11.8207860815734,21.3147647503901,4.65794374288397,-0.0872723620960008,3,14.086328125,29.9
1.13333333333333,11.8200743468248,21.4682851522888,4.5533841734507,-0.10455956943327,3,14.0508680555556,29.9
1.16666666666667,11.8193846360716,21.618119087818,4.43675409902808,-0.116630074422629,3,14.0158420138889,29.9
1.2,11.818721971597,21.7638639423409,4.30803753394336,-0.128716565084714,3,13.98125,29.9
1.23333333333333,11.8180851342655,21.9051746547709,4.17070564265483,-0.137331891288535,3,13.9470920138889,29.9
1.26666666666667,11.8174682693271,22.0418795946246,4.03169437398319,-0.13901126867164,3,13.9133680555556,29.9
1.3,11.8168631091138,22.1738362873957,3.88581779738631,-0.145876576596873,3,13.9133680555556,29.9
1.33333333333333,11.8162609823015,22.3007867982635,3.73133404647772,-0.154483750908596,3,13.9133680555556,29.9
1.36666666666667,11.8156544480811,22.4223290345871,3.56133493010869,-0.169999116369029,3,13.9133680555556,29.9
1.4,11.8150383245478,22.5380032385515,3.3792676491179,-0.18206728099079,3,13.9133680555556,29.9
1.43333333333333,11.8144102206099,22.6474075369948,3.18515690267412,-0.194110746443777,3,13.9133680555556,29.9
1.46666666666667,11.8137706138037,22.7502844148489,2.98763795490229,-0.197518947771829,3,13.9133680555556,29.9
1.5,11.8131227582519,22.8465203336075,2.7867126255186,-0.20092532938369,3,13.9133680555556,29.9
1.53333333333333,11.8124725119063,22.9360596011699,2.58584833794073,-0.200864287577875,3,13.9133680555556,29.9
1.56666666666667,11.8118279867701,23.018846945268,2.38160169001561,-0.204246647925118,3,13.9133680555556,29.9
1.6,11.8111988682213,23.0947982018888,2.1757006403246,-0.205901049691008,3,13.9133680555556,29.9
1.63333333333333,11.8105952082368,23.1638411041095,1.96743402161714,-0.208266618707465,3,13.9133680555556,29.9
1.66666666666667,11.8100267022009,23.2259280525846,1.7584858959029,-0.208948125714241,3,13.9133680555556,29.9
1.7,11.8095025239283,23.2810467362003,1.54936820267395,-0.209117693228947,3,13.9133680555556,29.9
1.73333333333333,11.80903048414,23.3291668736094,1.33858682785998,-0.210781374813966,3,13.9133680555556,29.9
1.76666666666667,11.8086164267006,23.3703222901861,1.13148534627163,-0.207101481588355,3,13.9133680555556,29.9
1.8,11.8082643309225,23.4046376253389,0.92820503031006,-0.203280315961567,3,13.9133680555556,29.9
1.83333333333333,11.8079772379385,23.4322449162334,0.729018604863045,-0.199186425447014,3,13.9133680555556,29.9
1.86666666666667,11.8077573007961,23.4532812410424,0.533935006572416,-0.195083598290629,3,13.9133680555556,29.9
1.9,11.807605611463,23.4678841519911,0.343048536971655,-0.190886469600761,3,13.9133680555556,29.9
1.93333333333333,11.8075223047348,23.4761942333085,0.156432026654981,-0.186616510316674,3,13.9133680555556,29.9
1.96666666666667,11.8075078514911,23.4781379371325,0.0609680777012161,-0.0954639489537654,3,13.9133680555556,29.9
2,11.8075510419604,23.4761171599085,0.00689893273470904,-0.054069144966507,3,13.9133680555556,29.9
2.03333333333333,11.8075510419604,23.4761171599085,0.00786386257347676,0.000964929838767714,5,13.9133680555556,29.9
2.06666666666667,11.8075510419604,23.4761171599085,0.00932203276915312,0.00145817019567636,5,13.9133680555556,29.9
2.1,11.8075510419604,23.4761171599085,0.0111742275520668,0.00185219478291365,5,13.9133680555556,29.9
2.13333333333333,11.8075510419604,23.4761171599085,0.0132391581074622,0.00206493055539539,5,13.9133680555556,29.9
2.16666666666667,11.8075510419604,23.4761171599085,0.0152894492701179,0.00205029116265576,5,13.9133680555556,29.9
2.2,11.8075510419604,23.4761171599085,0.0170861417403551,0.00179669247023721,5,13.9133680555556,29.9
2.23333333333333,11.8075510419604,23.4761171599085,0.0184089006222934,0.00132275888193823,5,13.9133680555556,29.9
2.26666666666667,11.8075510419604,23.4761171599085,0.0190799547917268,0.000671054169433409,5,13.9133680555556,29.9
2.3,11.8075510419604,23.4761171599085,0.0189806371322984,-9.93176594283503e-05,5,13.9133680555556,29.9
2.33333333333333,11.8075510419604,23.4761171599085,0.0180601875424427,-0.000920449589855748,5,13.9133680555556,29.9
2.36666666666667,11.8075510419604,23.4761171599085,0.0163371683458627,-0.00172301919657996,5,13.9133680555556,29.9
2.4,11.8075510419604,23.4761171599085,0.0138943909524264,-0.00244277739343628,5,13.9133680555556,29.9
2.43333333333333,11.8075510419604,23.4761171599085,0.0108686447657716,-0.00302574618665487,5,13.9133680555556,29.9
2.46666666666667,11.8075510419604,23.4761171599085,0.0074367503866795,-0.00343189437909207,5,13.9133680555556,29.9
2.5,11.8075510419604,23.4761171599085,0.0037995374866699,-0.0036372129000096,5,13.9133680555556,29.9
2.53333333333333,11.8075510419604,23.4761171599085,0.000165291461119611,-0.00363424602555029,5,13.9133680555556,29.9
2.56666666666667,11.8075510419604,23.4761171599085,0.00326595286367552,0.00310066140255591,5,13.9133680555556,29.9
2.6,11.8075510419604,23.4761171599085,0.00631613858789726,0.00305018572422174,5,13.9133680555556,29.9
2.63333333333333,11.8075510419604,23.4761171599085,0.00884009992744867,0.00252396133955141,5,13.9133680555556,29.9
2.66666666666667,11.8075510419604,23.4761171599085,0.0107331436699942,0.00189304374254551,5,13.9133680555556,29.9
2.7,11.8075510419604,23.4761171599085,0.0119350937469332,0.00120195007693901,5,13.9133680555556,29.9
2.73333333333333,11.8075510419604,23.4761171599085,0.0124308790161684,0.000495785269235265,5,13.9133680555556,29.9
2.76666666666667,11.8075510419604,23.4761171599085,0.0122479857370693,-0.00018289327909914,5,13.9133680555556,29.9
2.8,11.8075510419604,23.4761171599085,0.0114512826482176,-0.000796703088851713,5,13.9133680555556,29.9
2.83333333333333,11.8075510419604,23.4761171599085,0.0101358524480025,-0.00131543020021507,5,13.9133680555556,29.9
2.86666666666667,11.8075510419604,23.4761171599085,0.00841852831548876,-0.00171732413251376,5,13.9133680555556,29.9
2.9,11.8075510419604,23.4761171599085,0.00642884172549302,-0.00198968658999574,5,13.9133680555556,29.9
2.93333333333333,11.8075510419604,23.4761171599085,0.00430004546929466,-0.00212879625619836,5,13.9133680555556,29.9
2.96666666666667,11.8075510419604,23.4761171599085,0.00216079317455568,-0.00213925229473899,5,13.9133680555556,29.9
3,11.8075510419604,23.4761171599085,0.000127944809419649,-0.00203284836513603,5,13.9133680555556,29.9
3.03333333333333,11.8075510419604,23.4761171599085,0.00169916182029701,0.00157121701087736,5,13.9133680555556,29.9
3.06666666666667,11.8075510419604,23.4761171599085,0.00324276960087935,0.00154360778058234,5,13.9133680555556,29.9
3.1,11.8075510419604,23.4761171599085,0.00444901925691493,0.00120624965603557,5,13.9133680555556,29.9
3.13333333333333,11.8075510419604,23.4761171599085,0.00528857441882722,0.000839555161912292,5,13.9133680555556,29.9
3.16666666666667,11.8075510419604,23.4761171599085,0.00575570633298063,0.000467131914153407,5,13.9133680555556,29.9
3.2,11.8075510419604,23.4761171599085,0.00586606970901013,0.000110363376029501,5,13.9133680555556,29.9
3.23333333333333,11.8075510419604,23.4761171599085,0.0056534560769652,-0.000212613632044932,5,13.9133680555556,29.9
3.26666666666667,11.8075510419604,23.4761171599085,0.0051658407007162,-0.000487615376248993,5,13.9133680555556,29.9
3.3,11.8075510419604,23.4761171599085,0.00446104494497743,-0.000704795755738773,5,13.9133680555556,29.9
3.33333333333333,11.8075510419604,23.4761171599085,0.00360232076361652,-0.00085872418136091,5,13.9133680555556,29.9
3.36666666666667,11.8075510419604,23.4761171599085,0.00265413140011641,-0.000948189363500111,5,13.9133680555556,29.9
3.4,11.8075510419604,23.4761171599085,0.0016783568103383,-0.000975774589778114,5,13.9133680555556,29.9
3.43333333333333,11.8075510419604,23.4761171599085,0.000731098319974426,-0.000947258490363869,5,13.9133680555556,29.9
3.46666666666667,11.8075510419604,23.4761171599085,0.000139800884401796,-0.00059129743557263,5,13.9133680555556,29.9
3.5,11.8075510419604,23.4761171599085,0.000896460521658675,0.000756659637256879,5,13.9133680555556,29.9
3.53333333333333,11.8075510419604,23.4761171599085,0.00151188823327973,0.000615427711621058,5,13.9133680555556,29.9
3.56666666666667,11.8075510419604,23.4761171599085,0.00197016711793716,0.000458278884657427,5,13.9133680555556,29.9
3.6,11.8075510419604,23.4761171599085,0.0022659866524961,0.000295819534558941,5,13.9133680555556,29.9
3.63333333333333,11.8075510419604,23.4761171599085,0.00240362657711605,0.000137639924619952,5,13.9133680555556,29.9
3.66666666666667,11.8075510419604,23.4761171599085,0.00239552169430838,-8.10488280767645e-06,5,13.9133680555556,29.9
3.7,11.8075510419604,23.4761171599085,0.00226054382442792,-0.000134977869880459,5,13.9133680555556,29.9
3.73333333333333,11.8075510419604,23.4761171599085,0.00202213621585175,-0.000238407608576163,5,13.9133680555556,29.9
3.76666666666667,11.8075510419604,23.4761171599085,0.00170642682149549,-0.000315709394356262,5,13.9133680555556,29.9
3.8,11.8075510419604,23.4761171599085,0.00134043162732446,-0.000365995194171036,5,13.9133680555556,29.9
3.83333333333333,11.8075510419604,23.4761171599085,0.000950439422644043,-0.000389992204680413,5,13.9133680555556,29.9
3.86666666666667,11.8075510419604,23.4761171599085,0.000560646840163494,-0.000389792582480549,5,13.9133680555556,29.9
3.9,11.8075510419604,23.4761171599085,0.000192088889187648,-0.000368557950975846,5,13.9133680555556,29.9
3.93333333333333,11.8075510419604,23.4761171599085,0.00013811289390783,-5.39759952798186e-05,5,13.9133680555556,29.9
3.96666666666667,11.8075510419604,23.4761171599085,0.00041718384371923,0.000279070949811401,5,13.9133680555556,29.9
4,11.8075510419604,23.4761171599085,0.000636828744325239,0.000219644900606008,5,13.9133680555556,29.9
4.03333333333333,11.8075510419604,23.4761171599085,0.00079309615787349,0.000156267413548251,5,13.9133680555556,29.9
4.06666666666667,11.8075510419604,23.4761171599085,0.000886018086021073,9.29219281475839e-05,5,13.9133680555556,29.9
4.1,11.8075510419604,23.4761171599085,0.000919075528560907,3.30574425398337e-05,5,13.9133680555556,29.9
4.13333333333333,11.8075510419604,23.4761171599085,0.000898543600769703,-2.05319277912043e-05,5,13.9133680555556,29.9
4.16666666666667,11.8075510419604,23.4761171599085,0.000832769440607713,-6.577416016199e-05,5,13.9133680555556,29.9
4.2,11.8075510419604,23.4761171599085,0.000731432694013136,-0.000101336746594577,5,13.9133680555556,29.9
4.23333333333333,11.8075510419604,23.4761171599085,0.000604832531422,-0.000126600162591136,5,13.9133680555556,29.9
4.26666666666667,11.8075510419604,23.4761171599085,0.000463237594812296,-0.000141594936609705,5,13.9133680555556,29.9
4.3,11.8075510419604,23.4761171599085,0.000316326681201928,-0.000146910913610368,5,13.9133680555556,29.9
4.33333333333333,11.8075510419604,23.4761171599085,0.000172738979463719,-0.000143587701738209,5,13.9133680555556,29.9
4.36666666666667,11.8075510419604,23.4761171599085,3.97438680914731e-05,-0.000132995111372246,5,13.9133680555556,29.9
4.4,11.8075510419604,23.4761171599085,7.69678647222033e-05,3.72239966307302e-05,5,13.9133680555556,29.9
4.43333333333333,11.8075510419604,23.4761171599085,0.000173376625062465,9.64087603402613e-05,5,13.9133680555556,29.9
4.46666666666667,11.8075510419604,23.4761171599085,0.000148509065946878,-2.48675591155865e-05,5,13.9133680555556,29.9
4.5,11.8075492294019,23.4765132451522,0.0202978810463261,0.0201493719803792,4,13.9133680555556,29.9
4.53333333333333,11.8075436727409,23.4777274726567,0.0525067153427743,0.0322088342964482,4,13.9133680555556,29.9
4.56666666666667,11.8075321702813,23.4802394548894,0.0981224972357446,0.0456157818929703,4,13.9133680555556,29.9
4.6,11.8075133342971,23.4843475380651,0.148233835300263,0.0501113380645186,4,13.9133680555556,29.9
4.63333333333333,11.8074868442162,23.4901104636145,0.197386593357067,0.0491527580568041,4,13.9133680555556,29.9
4.66666666666667,11.8074527663085,23.4974931803113,0.245409824120703,0.0480232307636357,4,13.9133680555556,29.9
4.7,11.8074111318564,23.5064568198602,0.292257948507254,0.0468481243865515,4,13.9133680555556,29.9
4.73333333333333,11.8073619097609,23.5169630785912,0.337984136290314,0.0457261877830598,4,13.9133680555556,29.9
4.76666666666667,11.8073049966518,23.5289754417777,0.382636507762206,0.0446523714718917,4,13.9133680555556,29.9
4.8,11.8072402175035,23.5424588537868,0.426254187068435,0.043617679306229,4,13.9133680555556,29.9
4.83333333333333,11.8071673296529,23.5573794468797,0.468869185919614,0.0426149988511791,4,13.9133680555556,29.9
4.86666666666667,11.8070860312893,23.5737041267992,0.510492857578498,0.0416236716588843,4,13.9133680555556,29.9
4.9,11.8069959754422,23.591399785499,0.551120155994853,0.040627298416355,4,13.9133680555556,29.9
4.93333333333333,11.8068967842786,23.6104332259739,0.590753231721085,0.039633075726232,4,13.9133680555556,29.9
4.96666666666667,11.8067880650038,23.630771410067,0.629400582581384,0.0386473508602982,4,13.9133680555556,29.9
5,11.8066694284016,23.6523816417511,0.667075040583503,0.0376744580021191,4,13.9133680555556,29.9
5.03333333333333,11.8065405089571,23.6752317124669,0.703795619049998,0.036720578466495,4,13.9133680555556,29.9
5.06666666666667,11.8064009827867,23.6992905875168,0.739617478227236,0.035821859177238,4,13.9133680555556,29.9
5.1,11.8062505834172,23.7245293537561,0.774603174711194,0.0349856964839582,4,13.9133680555556,29.9
5.13333333333333,11.8060891208821,23.7509209803827,0.808802767952734,0.0341995932415403,4,13.9133680555556,29.9
5.16666666666667,11.8059164981142,23.7784399610504,0.842257108963019,0.0334543410102851,4,13.9133680555556,29.9
5.2,11.805732722702,23.8070620473012,0.875000260834701,0.0327431518716812,4,13.9133680555556,29.9
5.23333333333333,11.8055379133408,23.8367640487994,0.907061290757984,0.0320610299232833,4,13.9133680555556,29.9
5.26666666666667,11.8053323013367,23.8675235121462,0.938447749455816,0.0313864586978317,4,13.9133680555556,29.9
5.3,11.8051162308375,23.8993174696049,0.969127469978739,0.0306797205229236,4,13.9133680555556,29.9
5.33333333333333,11.8048901498296,23.9321219592147,0.999077893181972,0.0299504232032326,4,13.9133680555556,29.9
5.36666666666667,11.8046545912919,23.965912503235,1.02828966565995,0.0292117724779832,4,13.9133680555556,29.9
5.4,11.8044101504321,24.0006644382578,1.05676138811413,0.0284717224541748,4,13.9133680555556,29.9
5.43333333333333,11.8041574585555,24.0363531849583,1.08449961274366,0.0277382246295332,4,13.9133680555556,29.9
5.46666666666667,11.8038971547028,24.0729544784188,1.11151653509046,0.0270169223468002,4,13.9133680555556,29.9
5.5,11.8036298566574,24.1104445267806,1.13782842454111,0.0263118894506515,4,13.9133680555556,29.9
5.53333333333333,11.8033561320562,24.1488002619657,1.16346596123919,0.0256375366980752,4,13.9133680555556,29.9
5.56666666666667,11.8030764697156,24.1879999656368,1.18847487300136,0.0250089117621712,4,13.9133680555556,29.9
5.6,11.8027912573214,24.2280233587284,1.21289466143536,0.0244197884340025,4,13.9133680555556,29.9
5.63333333333333,11.8025007658209,24.2688513730653,1.23675861798071,0.0238639565453478,4,13.9133680555556,29.9
5.66666666666667,11.8022051398234,24.3104659690215,1.26009527257494,0.0233366545942326,4,13.9133680555556,29.9
5.7,11.8019043948287,24.3528499946375,1.28292946807545,0.0228341955005025,4,13.9133680555556,29.9
5.73333333333333,11.8015984217122,24.3959870756851,1.30528315686245,0.0223536887870004,4,13.9133680555556,29.9
5.76666666666667,11.8012869983959,24.4398615289056,1.32717599239924,0.0218928355367904,4,13.9133680555556,29.9
5.8,11.8009698081201,24.4844582926701,1.34862577057346,0.0214497781742276,4,13.9133680555556,29.9
5.83333333333333,11.8006464632424,24.5297628664211,1.3696477563861,0.0210219858126368,4,13.9133680555556,29.9
5.86666666666667,11.8003165340807,24.5757610649824,1.39024430277999,0.020596546393884,4,13.9133680555556,29.9
5.9,11.7999795804186,24.6224386833593,1.41041513360528,0.0201708308252913,4,13.9133680555556,29.9
5.93333333333333,11.7996351807404,24.6697815841832,1.43016432652134,0.0197491929160605,4,13.9133680555556,29.9
5.96666666666667,11.7992829591412,24.7177758188028,1.44949891086105,0.0193345843397106,4,13.9133680555556,29.9
6,11.7989226082884,24.7664077083399,1.46842785728154,0.0189289464204869,4,13.9133680555556,29.9
6.03333333333333,11.7985539066839,24.8156638959301,1.48696135325692,0.0185334959753882,4,13.9133680555556,29.9
6.06666666666667,11.798176728979,24.8655313783055,1.50511028680112,0.018148933544198,4,13.9133680555556,29.9
6.1,11.7977910487169,24.9159975226758,1.52288588138452,0.0177755945833975,2,13.9133680555556,29.9
