Time,x_ego,y_ego,velocity,acceleration,action,x_ped,y_ped
0,11.8,15.9,7,0,1,15.5,29.9
0.0333333333333333,11.8000008865857,16.133270379394,6.99615577991841,-0.0038442200815938,1,15.4502170138889,29.9
0.0666666666666667,11.8000064339571,16.3664065987999,6.99196947538242,-0.00418630453598645,1,15.4008680555556,29.9
0.1,11.8000196445433,16.5994007551766,6.98769500183712,-0.00427447354529598,1,15.351953125,29.9
0.133333333333333,11.8000420752732,16.8322537848284,6.983497685232,-0.0041973166051239,1,15.3034722222222,29.9
0.166666666666667,11.8000742691125,17.0649678788595,6.97935590372366,-0.00414178150833511,1,15.2554253472222,29.9
0.2,11.8001161417479,17.2975446154427,6.97525416149575,-0.00410174222791504,1,15.2078125,29.9
0.233333333333333,11.800167277807,17.5299851335513,6.97118135398893,-0.00407280750682126,1,15.1606336805556,29.9
0.266666666666667,11.8002271268323,17.762290257465,6.96712952401992,-0.00405182996900777,1,15.1138888888889,29.9
0.3,11.8002951131701,17.9944605859838,6.96309296986959,-0.00403655415032667,1,15.067578125,29.9
0.333333333333333,11.8003706855026,18.2264965563484,6.95906760593838,-0.00402536393121,1,15.0217013888889,29.9
0.366666666666667,11.800453333014,18.4583984900337,6.95505050461505,-0.00401710132333033,1,14.9762586805556,29.9
0.4,11.8005425895977,18.6901666255576,6.95103956806592,-0.0040109365491352,1,14.93125,29.9
0.433333333333333,11.8006380388846,18.9218011419842,6.94703329309286,-0.0040062749730545,1,14.8866753472222,29.9
0.466666666666667,11.8007393243935,19.1533021757616,6.94303060262843,-0.00400269046443746,1,14.8425347222222,29.9
0.5,11.8008461629098,19.3846698327831,6.93903072494392,-0.0039998776845076,1,14.798828125,29.9
0.533333333333333,11.8009583561492,19.6159041970285,6.9350331070394,-0.00399761790452224,1,14.7555555555556,29.9
0.566666666666667,11.8010757956833,19.8470053367551,6.93103735254493,-0.00399575449446488,1,14.7127170138889,29.9
0.6,11.8011984580901,20.0779733089368,6.92704317721728,-0.00399417532765511,1,14.6703125,29.9
0.633333333333333,11.8013263901629,20.3088081624487,6.9230503770761,-0.00399280014117664,1,14.6283420138889,29.9
0.666666666666667,11.8014596746289,20.539480874765,6.91731490473578,-0.00573547234031668,1,14.5868055555556,29.9
0.7,11.8015982759029,20.7696452458401,6.89255046775411,-0.0247644369816769,3,14.545703125,29.9
0.733333333333333,11.8017420047262,20.9986670168143,6.84875955400418,-0.0437909137499313,3,14.5050347222222,29.9
0.766666666666667,11.8018906895893,21.2260849596218,6.79632130051696,-0.0524382534872192,3,14.4648003472222,29.9
0.8,11.8020441558275,21.4515821576728,6.73351546930739,-0.0628058312095696,3,14.425,29.9
0.833333333333333,11.8022020950334,21.6747265873659,6.65515602708432,-0.0783594422230713,3,14.3856336805556,29.9
0.866666666666667,11.8023641396993,21.8951150092364,6.56815596176173,-0.0870000653225871,3,14.3467013888889,29.9
0.9,11.8025299710254,22.1125458996132,6.47770536597565,-0.0904505957860744,3,14.308203125,29.9
0.933333333333333,11.8026992239091,22.3268177831192,6.37861731670514,-0.0990880492705157,3,14.2701388888889,29.9
0.966666666666667,11.8028714297045,22.5376140611458,6.26917132986029,-0.10944598684485,3,14.2325086805556,29.9
1,11.803046130866,22.7446759614528,6.15455727986151,-0.114614049998773,3,14.1953125,29.9
1.03333333333333,11.8032228907193,22.9478025268466,6.03305411124819,-0.121503168613321,3,14.1585503472222,29.9
1.06666666666667,11.8034012223999,23.1467350735776,5.90291903080995,-0.130135080438241,3,14.1222222222222,29.9
1.1,11.8035806065036,23.3411858975364,5.7641533020453,-0.138765728764657,3,14.086328125,29.9
1.13333333333333,11.8037605084778,23.5308673409575,5.61675818908204,-0.147395112963253,3,14.0508680555556,29.9
1.16666666666667,11.8039403756478,23.7154921546252,5.46075676447179,-0.156001424610254,3,14.0158420138889,29.9
1.2,11.804119633592,23.8947731330889,5.29612850985968,-0.164628254612108,3,13.98125,29.9
1.23333333333333,11.8042977307592,24.0684805180293,5.12634073852187,-0.169787771337806,3,13.9470920138889,29.9
1.26666666666667,11.8044741413783,24.2364423521931,4.95139433583446,-0.17494640268741,3,13.9133680555556,29.9
1.3,11.8046483717224,24.3985441088362,4.77473434399014,-0.176659991844328,3,13.9133680555556,29.9
1.33333333333333,11.8048199673619,24.5547290444578,4.59638292989839,-0.178351414091743,3,13.9133680555556,29.9
1.36666666666667,11.8049884449348,24.7049117197581,4.41459641051053,-0.181786519387867,3,13.9133680555556,29.9
1.4,11.805153241527,24.8489192831853,4.225848277503,-0.188748133007525,3,13.9133680555556,29.9
1.43333333333333,11.8053137375436,24.9865180184655,4.03007374626994,-0.195774531233057,3,13.9133680555556,29.9
1.46666666666667,11.8054692845015,25.1174461856663,3.82561916512587,-0.204454581144073,3,13.9133680555556,29.9
1.5,11.8056192595388,25.2414720821447,3.61594111151377,-0.2096780536121,3,13.9133680555556,29.9
1.53333333333333,11.8057630646715,25.3583936773207,3.3993638329681,-0.21657727854567,3,13.9133680555556,29.9
1.56666666666667,11.8059005590355,25.4680677794649,3.18109361453936,-0.218270218428743,3,13.9133680555556,29.9
1.6,11.8060330985271,25.5704668786734,2.96286530808407,-0.218228306455288,3,13.9133680555556,29.9
1.63333333333333,11.8061621793208,25.6655634587342,2.74294383357922,-0.219921474504846,3,13.9133680555556,29.9
1.66666666666667,11.8062901800296,25.7533015521982,2.52135736812309,-0.221586465456129,3,13.9133680555556,29.9
1.7,11.8064197787533,25.8336544369161,2.29983258404407,-0.22152478407902,3,13.9133680555556,29.9
1.73333333333333,11.806552483676,25.9066255814406,2.07859896348149,-0.22123362056259,3,13.9133680555556,29.9
1.76666666666667,11.8066890434491,25.9722510563075,1.85941237918476,-0.219186584296726,3,13.9133680555556,29.9
1.8,11.8068288522411,26.0306213183145,1.64337501556943,-0.216037363615326,3,13.9133680555556,29.9
1.83333333333333,11.8069701247659,26.0818478766745,1.43083167076489,-0.212543344804539,3,13.9133680555556,29.9
1.86666666666667,11.8071103628674,26.1260505553235,1.22196626423555,-0.208865406529346,3,13.9133680555556,29.9
1.9,11.8072467584612,26.1633537507659,1.0168819968193,-0.205084267416252,3,13.9133680555556,29.9
1.93333333333333,11.8073765136324,26.1938867612341,0.815807614402497,-0.201074382416799,3,13.9133680555556,29.9
1.96666666666667,11.8074970778063,26.2177864230006,0.618873013068527,-0.19693460133397,3,13.9133680555556,29.9
2,11.8076062961628,26.2351902500785,0.426081714395796,-0.192791298672731,3,13.9133680555556,29.9
2.03333333333333,11.8077025093856,26.2462382681125,0.23753299021036,-0.188548724185436,3,13.9133680555556,29.9
2.06666666666667,11.80778460513,26.251071593175,0.0532957029664873,-0.184237287243872,3,13.9133680555556,29.9
2.1,11.8078550356451,26.2517289440353,0.0456711471939207,-0.0076245557725666,5,13.9133680555556,29.9
2.13333333333333,11.8079162291198,26.2502103912189,0.00378913939351167,-0.0418820078004091,3,13.9133680555556,29.9
2.16666666666667,11.8079162291198,26.2502103912189,0.00560551479574642,0.00181637540223475,5,13.9133680555556,29.9
2.2,11.8079162291198,26.2502103912189,0.00793821137489989,0.00233269657915347,5,13.9133680555556,29.9
2.23333333333333,11.8079162291198,26.2502103912189,0.0105906378008633,0.00265242642596338,5,13.9133680555556,29.9
2.26666666666667,11.8079162291198,26.2502103912189,0.0133115686432849,0.00272093084242165,5,13.9133680555556,29.9
2.3,11.8079162291198,26.2502103912189,0.0158316359511749,0.00252006730788996,5,13.9133680555556,29.9
2.33333333333333,11.8079162291198,26.2502103912189,0.0178960184210396,0.00206438246986471,5,13.9133680555556,29.9
2.36666666666667,11.8079162291198,26.2502103912189,0.0192910805376883,0.00139506211664869,5,13.9133680555556,29.9
2.4,11.8079162291198,26.2502103912189,0.0198635770009901,0.000572496463301785,5,13.9133680555556,29.9
2.43333333333333,11.8079162291198,26.2502103912189,0.0195318647485039,-0.000331712252486162,5,13.9133680555556,29.9
2.46666666666667,11.8079162291198,26.2502103912189,0.018289300111936,-0.00124256463656788,5,13.9133680555556,29.9
2.5,11.8079162291198,26.2502103912189,0.0162006022733442,-0.00208869783859182,5,13.9133680555556,29.9
2.53333333333333,11.8079162291198,26.2502103912189,0.0133924125453245,-0.00280818972801974,5,13.9133680555556,29.9
2.56666666666667,11.8079162291198,26.2502103912189,0.010039563580582,-0.00335284896474246,5,13.9133680555556,29.9
2.6,11.8079162291198,26.2502103912189,0.00634869818087754,-0.00369086539970446,5,13.9133680555556,29.9
2.63333333333333,11.8079162291198,26.2502103912189,0.00254085944352254,-0.003807838737355,5,13.9133680555556,29.9
2.66666666666667,11.8079162291198,26.2502103912189,0.00116546401285464,-0.00137539543066791,5,13.9133680555556,29.9
2.7,11.8079162291198,26.2502103912189,0.00456958365437942,0.00340411964152479,5,13.9133680555556,29.9
2.73333333333333,11.8079162291198,26.2502103912189,0.00750118411113504,0.00293160045675562,5,13.9133680555556,29.9
2.76666666666667,11.8079162291198,26.2502103912189,0.0098295819328602,0.00232839782172516,5,13.9133680555556,29.9
2.8,11.8079162291198,26.2502103912189,0.0114693527861338,0.00163977085327358,5,13.9133680555556,29.9
2.83333333333333,11.8079162291198,26.2502103912189,0.0123823135808987,0.000912960794764888,5,13.9133680555556,29.9
2.86666666666667,11.8079162291198,26.2502103912189,0.0125761101075977,0.000193796526698983,5,13.9133680555556,29.9
2.9,11.8079162291198,26.2502103912189,0.0120998720259982,-0.000476238081599465,5,13.9133680555556,29.9
2.93333333333333,11.8079162291198,26.2502103912189,0.011037547924285,-0.00106232410171321,5,13.9133680555556,29.9
2.96666666666667,11.8079162291198,26.2502103912189,0.00949962143791125,-0.00153792648637373,5,13.9133680555556,29.9
3,11.8079162291198,26.2502103912189,0.00761393753652689,-0.00188568390138435,5,13.9133680555556,29.9
3.03333333333333,11.8079162291198,26.2502103912189,0.00551634232043927,-0.00209759521608763,5,13.9133680555556,29.9
3.06666666666667,11.8079162291198,26.2502103912189,0.00334176909892238,-0.00217457322151689,5,13.9133680555556,29.9
3.1,11.8079162291198,26.2502103912189,0.00121629901607198,-0.0021254700828504,5,13.9133680555556,29.9
3.13333333333333,11.8079162291198,26.2502103912189,0.0007494023081885,-0.000466896707883485,5,13.9133680555556,29.9
3.16666666666667,11.8079162291198,26.2502103912189,0.0024650082195198,0.0017156059113313,5,13.9133680555556,29.9
3.2,11.8079162291198,26.2502103912189,0.00386368833978356,0.00139868012026376,5,13.9133680555556,29.9
3.23333333333333,11.8079162291198,26.2502103912189,0.00490350217282987,0.00103981383304631,5,13.9133680555556,29.9
3.26666666666667,11.8079162291198,26.2502103912189,0.0055671437177816,0.000663641544951725,5,13.9133680555556,29.9
3.3,11.8079162291198,26.2502103912189,0.00586024252255198,0.000293098804770381,5,13.9133680555556,29.9
3.33333333333333,11.8079162291198,26.2502103912189,0.00580849268886933,-5.17498336826509e-05,5,13.9133680555556,29.9
3.36666666666667,11.8079162291198,26.2502103912189,0.00545392173731175,-0.000354570951557574,5,13.9133680555556,29.9
3.4,11.8079162291198,26.2502103912189,0.00485062673365442,-0.000603295003657339,5,13.9133680555556,29.9
3.43333333333333,11.8079162291198,26.2502103912189,0.00406029795206754,-0.000790328781586875,5,13.9133680555556,29.9
3.46666666666667,11.8079162291198,26.2502103912189,0.00314782403984714,-0.000912473912220402,5,13.9133680555556,29.9
3.5,11.8079162291198,26.2502103912189,0.00217723134968145,-0.000970592690165683,5,13.9133680555556,29.9
3.53333333333333,11.8079162291198,26.2502103912189,0.0012081584020915,-0.00096907294758995,5,13.9133680555556,29.9
3.56666666666667,11.8079162291198,26.2502103912189,0.000293008953242026,-0.000915149448849478,5,13.9133680555556,29.9
3.6,11.8079162291198,26.2502103912189,0.000525131770796386,0.00023212281755436,5,13.9133680555556,29.9
3.63333333333333,11.8079162291198,26.2502103912189,0.00121378959943653,0.000688657828640142,5,13.9133680555556,29.9
3.66666666666667,11.8079162291198,26.2502103912189,0.00175162551302827,0.000537835913591747,5,13.9133680555556,29.9
3.7,11.8079162291198,26.2502103912189,0.00212825700774174,0.000376631494713469,5,13.9133680555556,29.9
3.73333333333333,11.8079162291198,26.2502103912189,0.00234347575472925,0.000215218746987501,5,13.9133680555556,29.9
3.76666666666667,11.8079162291198,26.2502103912189,0.00240598357963745,6.25078249082084e-05,5,13.9133680555556,29.9
3.8,11.8079162291198,26.2502103912189,0.0023317814465279,-7.4202133109557e-05,5,13.9133680555556,29.9
3.83333333333333,11.8079162291198,26.2502103912189,0.00214234906515226,-0.000189432381375637,5,13.9133680555556,29.9
3.86666666666667,11.8079162291198,26.2502103912189,0.00186274708354427,-0.000279601981607985,5,13.9133680555556,29.9
3.9,11.8079162291198,26.2502103912189,0.00151976107974999,-0.000342986003794288,5,13.9133680555556,29.9
3.93333333333333,11.8079162291198,26.2502103912189,0.00114018845311981,-0.000379572626630173,5,13.9133680555556,29.9
3.96666666666667,11.8079162291198,26.2502103912189,0.000749347650386281,-0.000390840802733532,5,13.9133680555556,29.9
4,11.8079162291198,26.2502103912189,0.000369865722445637,-0.000379481927940644,5,13.9133680555556,29.9
4.03333333333333,11.8079162291198,26.2502103912189,2.07766328341701e-05,-0.000349089089611467,5,13.9133680555556,29.9
4.06666666666667,11.8079162291198,26.2502103912189,0.000283059552446043,0.000262282919611873,5,13.9133680555556,29.9
4.1,11.8079162291198,26.2502103912189,0.000531226327036835,0.000248166774590792,5,13.9133680555556,29.9
4.13333333333333,11.8079162291198,26.2502103912189,0.000717735586149824,0.000186509259112989,5,13.9133680555556,29.9
4.16666666666667,11.8079162291198,26.2502103912189,0.000840766774846839,0.000123031188697015,5,13.9133680555556,29.9
4.2,11.8079162291198,26.2502103912189,0.000902208244123308,6.14414692764686e-05,5,13.9133680555556,29.9
4.23333333333333,11.8079162291198,26.2502103912189,0.000907053510451413,4.84526632810579e-06,5,13.9133680555556,29.9
4.26666666666667,11.8079162291198,26.2502103912189,0.000862706200713301,-4.43473097381128e-05,5,13.9133680555556,29.9
4.3,11.8079162291198,26.2502103912189,0.000778245296230682,-8.44609044826186e-05,5,13.9133680555556,29.9
4.33333333333333,11.8079162291198,26.2502103912189,0.000663697448156619,-0.000114547848074063,5,13.9133680555556,29.9
4.36666666666667,11.8079162291198,26.2502103912189,0.000529356278109327,-0.000134341170047292,5,13.9133680555556,29.9
4.4,11.8079162291198,26.2502103912189,0.000385180384179447,-0.00014417589392988,5,13.9133680555556,29.9
4.43333333333333,11.8079162291198,26.2502103912189,0.000240292906248372,-0.000144887477931074,5,13.9133680555556,29.9
4.46666666666667,11.8079162291198,26.2502103912189,0.000102596573699357,-0.000137696332549016,5,13.9133680555556,29.9
4.5,11.8079162291198,26.2502103912189,2.14903121402666e-05,-8.11062615590899e-05,5,13.9133680555556,29.9
4.53333333333333,11.8079162291198,26.2502103912189,0.000127179096232141,0.000105688784091874,5,13.9133680555556,29.9
4.56666666666667,11.8079162291198,26.2502103912189,0.000211345717972928,8.41666217407866e-05,5,13.9133680555556,29.9
4.6,11.8079162291198,26.2502103912189,0.000272468921450482,6.11232034775544e-05,5,13.9133680555556,29.9
4.63333333333333,11.8079162291198,26.2502103912189,0.0003104887840605,3.80198626100183e-05,5,13.9133680555556,29.9
4.66666666666667,11.8079162291198,26.2502103912189,0.000326604675059264,1.61158909987638e-05,5,13.9133680555556,29.9
4.7,11.8079162291198,26.2502103912189,0.000323032435705429,-3.57223935383468e-06,5,13.9133680555556,29.9
4.73333333333333,11.8079162291198,26.2502103912189,0.000302740036649631,-2.02923990557985e-05,5,13.9133680555556,29.9
4.76666666666667,11.8079162291198,26.2502103912189,0.000269179422181228,-3.35606144684031e-05,5,13.9133680555556,29.9
4.8,11.8079162291198,26.2502103912189,0.000226029928882749,-4.31494932984785e-05,5,13.9133680555556,29.9
4.83333333333333,11.8079162291198,26.2502103912189,0.000176965812587857,-4.90641162948921e-05,5,13.9133680555556,29.9
4.86666666666667,11.8079162291198,26.2502103912189,0.000125457271420788,-5.15085411670694e-05,5,13.9133680555556,29.9
4.9,11.8079162291198,26.2502103912189,7.46111349500139e-05,-5.0846136470774e-05,5,13.9133680555556,29.9
4.93333333333333,11.8079162291198,26.2502103912189,2.70542926377435e-05,-4.75568423122703e-05,5,13.9133680555556,29.9
4.96666666666667,11.8079162291198,26.2502103912189,1.51398838650395e-05,-1.1914408772704e-05,5,13.9133680555556,29.9
5,11.8079162291198,26.2502103912189,5.04842921286859e-05,3.53444082636464e-05,5,13.9133680555556,29.9
5.03333333333333,11.8079162291198,26.2502103912189,7.80741388701379e-05,2.7589846741452e-05,5,13.9133680555556,29.9
5.06666666666667,11.8079162291198,26.2502103912189,9.75518158468049e-05,1.9477676976667e-05,5,13.9133680555556,29.9
5.1,11.8079162291198,26.2502103912189,0.000109047072490964,1.14952566441591e-05,5,13.9133680555556,29.9
5.13333333333333,11.8079162291198,26.2502103912189,0.000113099365439893,4.05229294892862e-06,5,13.9133680555556,29.9
5.16666666666667,11.8079162291198,26.2502103912189,0.000110569240104972,-2.53012533492082e-06,5,13.9133680555556,29.9
5.2,11.8079162291198,26.2502103912189,0.000102545197267257,-8.02404283771484e-06,5,13.9133680555556,29.9
5.23333333333333,11.8079162291198,26.2502103912189,9.02517968692551e-05,-1.22934003980019e-05,5,13.9133680555556,29.9
5.26666666666667,11.8079162291198,26.2502103912189,7.49638352610745e-05,-1.52879616081806e-05,5,13.9133680555556,29.9
5.3,11.8079162291198,26.2502103912189,5.79303843045378e-05,-1.70334509565367e-05,5,13.9133680555556,29.9
5.33333333333333,11.8079162291198,26.2502103912189,4.03113790297585e-05,-1.76190052747793e-05,5,13.9133680555556,29.9
5.36666666666667,11.8079162291198,26.2502103912189,2.31283543507375e-05,-1.71830246790209e-05,5,13.9133680555556,29.9
5.4,11.8079162291198,26.2502103912189,7.22991874359047e-06,-1.58984356071471e-05,5,13.9133680555556,29.9
5.43333333333333,11.8079162291198,26.2502103912189,6.72834103466251e-06,-5.01577708927965e-07,5,13.9133680555556,29.9
5.46666666666667,11.8079162291198,26.2502103912189,1.82905734275879e-05,1.15622323929253e-05,5,13.9133680555556,29.9
5.5,11.8079162291198,26.2502103912189,2.71956172842967e-05,8.90504385670881e-06,5,13.9133680555556,29.9
5.53333333333333,11.8079162291198,26.2502103912189,3.33622212579859e-05,6.16660397368926e-06,5,13.9133680555556,29.9
5.56666666666667,11.8079162291198,26.2502103912189,3.68667778989942e-05,3.50455664100829e-06,5,13.9133680555556,29.9
5.6,11.8079162291198,26.2502103912189,3.79158933104563e-05,1.04911541146207e-06,5,13.9133680555556,29.9
5.63333333333333,11.8079162291198,26.2502103912189,3.68160459306237e-05,-1.09984737983253e-06,5,13.9133680555556,29.9
5.66666666666667,11.8079162291198,26.2502103912189,3.39424076131255e-05,-2.87363831749826e-06,5,13.9133680555556,29.9
5.7,11.8079162291198,26.2502103912189,2.97086337907126e-05,-4.23377382241286e-06,5,13.9133680555556,29.9
5.73333333333333,11.8079162291198,26.2502103912189,2.45391048419484e-05,-5.16952894876421e-06,5,13.9133680555556,29.9
5.76666666666667,11.8079162291198,26.2502103912189,1.88447445254219e-05,-5.69436031652655e-06,5,13.9133680555556,29.9
5.8,11.8079162291198,26.2502103912189,1.30031778462022e-05,-5.8415666792197e-06,5,13.9133680555556,29.9
5.83333333333333,11.8079162291198,26.2502103912189,7.34364098101755e-06,-5.65953686518461e-06,5,13.9133680555556,29.9
5.86666666666667,11.8079162291198,26.2502103912189,2.13673693220865e-06,-5.2069040488089e-06,5,13.9133680555556,29.9
5.9,11.8079162291198,26.2502103912189,2.41114488614606e-06,2.7440795393741e-07,5,13.9133680555556,29.9
5.93333333333333,11.8079162291198,26.2502103912189,6.1591505423191e-06,3.74800565617304e-06,5,13.9133680555556,29.9
5.96666666666667,11.8079162291198,26.2502103912189,9.02959791173894e-06,2.87044736941984e-06,5,13.9133680555556,29.9
6,11.8079162291198,26.2502103912189,1.10026113418046e-05,1.97301343006569e-06,5,13.9133680555556,29.9
