Time,x_ego,y_ego,velocity,acceleration,action,x_ped,y_ped
0,11.8,15.9,7,0,1,15.5,29.9
0.0333333333333333,11.8000074726162,16.1332703793737,6.99615580712131,-0.00384419287869164,1,15.5,29.9
0.0666666666666667,11.8000542288175,16.3664065980019,6.99196977578056,-0.00418603134074402,1,15.5,29.9
0.1,11.8001664181129,16.5994007479167,6.98769606635562,-0.00427370942494054,1,15.5,29.9
0.133333333333333,11.8003607541954,16.8322537517385,6.9835000232484,-0.00419604310722566,1,15.5,29.9
0.166666666666667,11.8006438287276,17.0649677770357,6.97935971660466,-0.00414030664373932,1,15.5,29.9
0.2,11.801011184081,17.2975443740888,6.97525912528588,-0.0041005913187826,1,15.5,29.9
0.233333333333333,11.8014491884192,17.5299846599783,6.97118680653356,-0.00407231875231862,1,15.5,29.9
0.266666666666667,11.8019418256294,17.7622894495322,6.96713481463831,-0.00405199189524641,1,15.5,29.9
0.3,11.8024716653585,17.9944593481116,6.96309746060852,-0.00403735402979422,1,15.5,29.9
0.333333333333333,11.8030136217076,18.2264948246431,6.95907061971332,-0.00402684089519223,1,15.5,29.9
0.366666666666667,11.8035352860032,18.4583962593289,6.95505193747519,-0.00401868223813828,1,15.5,29.9
0.4,11.8040137767367,18.690163945602,6.95103991686287,-0.0040120206123202,1,15.5,29.9
0.433333333333333,11.8044332372826,18.92179810355,6.94703319993674,-0.00400671692612775,1,15.5,29.9
0.466666666666667,11.804778242718,19.1532989001182,6.94303075640871,-0.00400244352802837,1,15.5,29.9
0.5,11.8050302191548,19.3846664641044,6.93903206433184,-0.00399869207687242,1,15.5,29.9
0.533333333333333,11.8051677330487,19.615900900276,6.93503750610893,-0.0039945582229084,1,15.5,29.9
0.566666666666667,11.8051645293595,19.8470023091725,6.93104832448814,-0.00398918162078754,1,15.5,29.9
0.6,11.8049902199712,20.0779707881213,6.9270659817766,-0.00398234271153886,1,15.5,29.9
0.633333333333333,11.8046182845012,20.3088064194226,6.92309181916352,-0.00397416261308425,1,15.5,29.9
0.666666666666667,11.8040288228152,20.5395092715785,6.91912650908444,-0.00396531007907974,1,15.5,29.9
0.7,11.8032132410629,20.7700793994484,6.91516962458259,-0.00395688450184739,1,15.5,29.9
0.733333333333333,11.8021750705491,21.0005168679219,6.9112206607618,-0.00394896382078791,1,15.5,29.9
0.766666666666667,11.8009282103357,21.2308218138961,6.90728083170942,-0.00393982905238754,1,15.5,29.9
0.8,11.7994921378266,21.4609945336289,6.9033541842141,-0.00392664749531146,1,15.5,29.9
0.833333333333333,11.7978889649959,21.6910355639238,6.89944689428741,-0.00390728992669409,1,15.5,29.9
0.866666666666667,11.7961445027281,21.9209457396703,6.89556587219137,-0.00388102209604479,1,15.5,29.9
0.9,11.7942890064353,22.1507262064734,6.89171771525633,-0.00384815693503082,1,15.5,29.9
0.933333333333333,11.7923548833457,22.3803783736405,6.88790770608534,-0.00381000917099783,1,15.5,29.9
0.966666666666667,11.7903735559847,22.6099038139979,6.8841387629469,-0.00376894313843845,1,15.5,29.9
1,11.7883728677664,22.839311095918,6.88125566446466,-0.00288309848224078,1,15.5,29.9
1.03333333333333,11.7863793936582,23.0686887868648,6.88289807912095,0.001642414656291,1,15.5,29.9
1.06666666666667,11.7844099001258,23.2982244887361,6.89083406550034,0.00793598637939485,1,15.5,29.9
1.1,11.7824714283608,23.5281326370568,6.90519933416935,0.0143652686690023,1,15.5,29.9
1.13333333333333,11.7805616787526,23.7586228662264,6.92565814232921,0.0204588081598596,4,15.5,29.9
1.16666666666667,11.7786720860995,23.9898893705051,6.95168028022201,0.0260221378928085,4,15.5,29.9
1.2,11.7767909061233,24.2221081462779,6.98267582122071,0.0309955409986999,4,15.5,29.9
1.23333333333333,11.7749054084758,24.4554337153883,7.01798155798041,0.0353057367596987,4,15.5,29.9
1.26666666666667,11.7730032956759,24.6899993969311,7.0569929736818,0.0390114157013892,4,15.5,29.9
1.3,11.7710735445586,24.9259194076495,7.09916628530288,0.0421733116210827,4,15.5,29.9
1.33333333333333,11.7691068538837,25.1632906991617,7.14400572977835,0.0448394444754694,4,15.5,29.9
1.36666666666667,11.7670966461043,25.402194328166,7.19105320631671,0.0470474765383511,4,15.5,29.9
1.4,11.7650409132811,25.6426968909085,7.23989604004748,0.0488428337307765,4,15.5,29.9
1.43333333333333,11.7629404095187,25.8848518357318,7.29015593884729,0.0502598987998111,4,15.5,29.9
1.46666666666667,11.7608025128612,26.1287007043142,7.34149482104563,0.0513388821983343,4,15.5,29.9
1.5,11.7586371224049,26.3742745549535,7.39362067523129,0.0521258541856637,4,15.5,29.9
1.53333333333333,11.7564546214023,26.6215954923288,7.44628764044616,0.052666965214871,4,15.5,29.9
1.56666666666667,11.7542664030565,26.8706781628421,7.49929286968865,0.0530052292424896,4,15.5,29.9
1.6,11.752086283979,27.1215311232786,7.55247186235743,0.0531789926687782,4,15.5,29.9
1.63333333333333,11.7499267290778,27.3741579954408,7.60569308581389,0.0532212234564593,4,15.5,29.9
1.66666666666667,11.7477981017251,27.628558438098,7.65884983425533,0.0531567484414417,4,15.5,29.9
1.7,11.7457093230709,27.8847288498937,7.71185488536012,0.0530050511047895,4,15.5,29.9
1.73333333333333,11.7436683082535,28.1426630552076,7.76463816218892,0.0527832768287952,4,15.5,29.9
1.76666666666667,11.7416822227261,28.4023521411205,7.81710120949705,0.0524630473081364,4,15.5,29.9
1.8,11.739757016316,28.6637839470304,7.86916027988944,0.0520590703923904,4,15.5,29.9
1.83333333333333,11.737894644424,28.9269441862094,7.92077666275952,0.0516163828700735,4,15.5,29.9
1.86666666666667,11.7360940466032,29.1918183382206,7.97197227752984,0.0511956147703225,4,15.5,29.9
1.9,11.7343527305795,29.4583927638885,8.02276967548534,0.050797397955499,4,15.5,29.9
1.93333333333333,11.7326678334236,29.7266542386073,8.07316778573203,0.0503981102466895,4,15.5,29.9
1.96666666666667,11.7310367364582,29.9965889249061,8.12313671310028,0.0499689273682513,4,15.5,29.9
2,11.7294573457948,30.2681822737776,8.17266834757775,0.0495316344774768,4,15.5,29.9
2.03333333333333,11.7279281612502,30.5414198652395,8.22177525191525,0.0491069043374921,4,15.5,29.9
2.06666666666667,11.7264482421484,30.8162878166876,8.27047524002864,0.0486999881133965,4,15.5,29.9
2.1,11.7250171351586,31.0927728600425,8.31878683002707,0.0483115899984217,4,15.5,29.9
2.13333333333333,11.7236347982727,31.3708623224365,8.36672654993193,0.0479397199048606,4,15.5,29.9
2.16666666666667,11.7223015344501,31.6505439464847,8.41430137388854,0.0475748239566158,4,15.5,29.9
2.2,11.721017933649,31.9318057544338,8.46152830856879,0.0472269346802481,4,15.5,29.9
2.23333333333333,11.719784813345,32.2146368614896,8.50845399061398,0.0469256820451918,4,15.5,29.9
2.26666666666667,11.7186031600532,32.4990281448622,8.55513366617222,0.0466796755582362,4,15.5,29.9
2.3,11.7174740735699,32.7849722156368,8.60161451093809,0.0464808447658722,4,15.5,29.9
2.33333333333333,11.716398713472,33.0724631233609,8.64793822916621,0.046323718228118,4,15.5,29.9
2.36666666666667,11.7153782495429,33.3614963168459,8.69414440866004,0.0462061794938311,4,15.5,29.9
2.4,11.7144138233886,33.6520683218986,8.74025829108989,0.0461138824298537,4,15.5,29.9
2.43333333333333,11.7135054894509,33.944176376739,8.78629889121363,0.0460406001237388,4,15.5,29.9
2.46666666666667,11.7126490086305,34.2378182194989,8.83227626915405,0.0459773779404191,4,15.5,29.9
2.5,11.711834999052,34.5329916875824,8.87818638114027,0.0459101119862204,4,15.5,29.9
2.53333333333333,11.7110439981412,34.829694058366,8.92400044816019,0.0458140670199185,4,15.5,29.9
2.56666666666667,11.7102505831559,35.1279215639265,8.96969113305422,0.0456906848940317,4,15.5,29.9
2.6,11.7094282740104,35.4276697360189,9.01524289599157,0.0455517629373468,4,15.5,29.9
2.63333333333333,11.7085453742407,35.728933695918,9.06064741311053,0.0454045171189605,4,15.5,29.9
2.66666666666667,11.7075697353358,36.031708345714,9.10590050328078,0.045253090170247,4,15.5,29.9
2.7,11.7064714115066,36.3359883579466,9.1509898902633,0.0450893869825233,4,15.5,29.9
2.73333333333333,11.705227676425,36.6417677623696,9.19589446782945,0.0449045775661538,4,15.5,29.9
2.76666666666667,11.7038280680538,36.9490401117683,9.24060541308119,0.0447109452517349,4,15.5,29.9
2.8,11.70227020336,37.2577988336975,9.28512157665062,0.0445161635694333,4,15.5,29.9
2.83333333333333,11.7005553402432,37.5680374045608,9.32944549901424,0.0443239223636205,4,15.5,29.9
2.86666666666667,11.6986859107551,37.8797494243384,9.3735812002782,0.0441357012639632,4,15.5,29.9
2.9,11.6966644281943,38.1929285935791,9.41752762753407,0.043946427255861,4,15.5,29.9
2.93333333333333,11.6944931858177,38.5075682891427,9.4612687866667,0.0437411591326367,4,15.5,29.9
2.96666666666667,11.6921742881504,38.8236615246301,9.50480224557545,0.0435334589087528,4,15.5,29.9
3,11.6897097257558,39.1412015951186,9.54814644300859,0.0433441974331377,4,15.5,29.9
