Time,x_ego,y_ego,velocity,acceleration,action,x_ped,y_ped
0,11.8,15.9,5,0,1,15.5,29.9
0.0333333333333333,11.8000012359285,16.0666076888414,4.99642261549726,-0.00357738450274336,1,15.4972222222222,29.9
0.0666666666666667,11.8000091647636,16.2330926530911,4.99264758115648,-0.00377503434077475,1,15.4888888888889,29.9
0.1,11.8000285015529,16.3994492967038,4.98873135070069,-0.00391623045579603,1,15.475,29.9
0.133333333333333,11.8000619628775,16.5656736234959,4.98471438031102,-0.00401697038966642,1,15.4555555555556,29.9
0.166666666666667,11.80011061235,16.7317627838498,4.98062565599594,-0.00408872431507667,1,15.4305555555556,29.9
0.2,11.8001742846702,16.8977147499385,4.97648594514145,-0.00413971085449116,1,15.4,29.9
0.233333333333333,11.8002519995685,17.0635280830554,4.97231012923249,-0.00417581590896265,1,15.3666666666667,29.9
0.266666666666667,11.8003423126467,17.2292017669036,4.96810887498688,-0.00420125424560513,1,15.3333333333333,29.9
0.3,11.8004417400111,17.3947350885071,4.96388976694355,-0.00421910804333159,1,15.3,29.9
0.333333333333333,11.800540490487,17.5601275540607,4.95965827723719,-0.00423148970635978,1,15.2666666666667,29.9
0.366666666666667,11.8006299855167,17.7253788263002,4.95541842126589,-0.00423985597129839,1,15.2333333333333,29.9
0.4,11.8007048197828,17.8904886790529,4.95117307345776,-0.00424534780813435,1,15.2,29.9
0.433333333333333,11.8007623048511,18.0554569648921,4.94692426981014,-0.00424880364762359,1,15.1666666666667,29.9
0.466666666666667,11.8008018734814,18.2202835923026,4.94267344495035,-0.00425082485978834,1,15.1333333333333,29.9
0.5,11.8008244788055,18.3849685097146,4.93842161139406,-0.00425183355629066,1,15.1,29.9
0.533333333333333,11.8008314856933,18.5495116944921,4.93416950090481,-0.00425211048924634,1,15.0666666666667,29.9
0.566666666666667,11.8008228391953,18.7139131452772,4.92991764403898,-0.0042518568658334,1,15.0333333333333,29.9
0.6,11.8007984518442,18.8781728756743,4.92566642746349,-0.00425121657548644,1,15,29.9
0.633333333333333,11.8007564888642,19.0422909102249,4.92141615032859,-0.00425027713490156,1,14.9666666666667,29.9
0.666666666666667,11.8006928690827,19.2062672809681,4.91716706528469,-0.00424908504389965,1,14.9333333333333,29.9
0.7,11.8006003765395,19.3701020245077,4.91291938118024,-0.00424768410445076,1,14.9,29.9
0.733333333333333,11.8004708828751,19.5337951790905,4.90867328318889,-0.00424609799134501,1,14.8666666666667,29.9
0.766666666666667,11.8002943523894,19.6973467820616,4.90442898095579,-0.00424430223310068,1,14.8333333333333,29.9
0.8,11.8000599106995,19.8607568670737,4.90018660829366,-0.00424237266213634,1,14.8,29.9
0.833333333333333,11.7997588265143,20.0240254624473,4.89594618233294,-0.00424042596071494,1,14.7666666666667,29.9
0.866666666666667,11.7993853846525,20.187152591177,4.89170756307407,-0.00423861925887437,1,14.7333333333333,29.9
0.9,11.7989385211745,20.3501382737467,4.88747046861826,-0.00423709445580744,1,14.7,29.9
0.933333333333333,11.7984210360086,20.5129825320644,4.88323463655741,-0.00423583206085443,1,14.6666666666667,29.9
0.966666666666667,11.7978382134294,20.6756853929967,4.87899988805142,-0.00423474850598105,1,14.6333333333333,29.9
1,11.7971966550401,20.8382468906823,4.87476614903772,-0.0042337390137055,1,14.6,29.9
1.03333333333333,11.7965033618632,21.0006670672264,4.87053343757997,-0.00423271145774695,1,14.5666666666667,29.9
1.06666666666667,11.7957652207146,21.1628591381479,4.86109192057124,-0.00944151700873075,1,14.5333333333333,29.9
1.1,11.794989356058,21.3243039882172,4.82571185056175,-0.0353800700094924,3,14.5,29.9
1.13333333333333,11.7941823644764,21.4843961305468,4.77994021525013,-0.045771635311616,3,14.4666666666667,29.9
1.16666666666667,11.7933494026652,21.64281867979,4.72554623231867,-0.0543939829314581,3,14.4333333333333,29.9
1.2,11.7924945793477,21.7993126282729,4.66423355974459,-0.0613126725740827,3,14.4,29.9
1.23333333333333,11.7916210424055,21.9536477711292,4.59602704255342,-0.0682065171911708,3,14.3666666666667,29.9
1.26666666666667,11.790731062722,22.105623062143,4.52265167328124,-0.0733753692721857,3,14.3333333333333,29.9
1.3,11.7898262984034,22.2550371754541,4.44236601865464,-0.0802856546265982,3,14.3,29.9
1.33333333333333,11.7889086755694,22.4015159254304,4.34654023270472,-0.0958257859499181,3,14.2666666666667,29.9
1.36666666666667,11.7879806649684,22.5445413579501,4.23517802543612,-0.111362207268595,3,14.2333333333333,29.9
1.4,11.7870446177942,22.6837108236648,4.11519376470229,-0.119984260733832,3,14.2,29.9
1.43333333333333,11.786102702907,22.8187947401769,3.99005682816727,-0.125136936535026,3,14.1666666666667,29.9
1.46666666666667,11.7851582323171,22.9495636331283,3.85630368307111,-0.133753145096153,3,14.1333333333333,29.9
1.5,11.7842170569651,23.0757594343128,3.71568088361761,-0.140622799453505,3,14.1,29.9
1.53333333333333,11.7832851605254,23.1971819386658,3.56991299028176,-0.145767893335849,3,14.0666666666667,29.9
1.56666666666667,11.7823684305388,23.3136019556438,3.41553604588561,-0.154376944396146,3,14.0333333333333,29.9
1.6,11.7814727620734,23.4247326051344,3.2525524204491,-0.162983625436509,3,14,29.9
1.63333333333333,11.7806032672796,23.5303735575918,3.08615269503414,-0.166399725414967,3,13.9666666666667,29.9
1.66666666666667,11.7797642102763,23.6304113840889,2.91636046165292,-0.169792233381211,3,13.9333333333333,29.9
1.7,11.7789597771851,23.7246749398207,2.73968943391679,-0.176671027736133,3,13.9,29.9
1.73333333333333,11.7781934189686,23.8130505352563,2.56307350938182,-0.176615924534974,3,13.8666666666667,29.9
1.76666666666667,11.7774676953596,23.8955113519089,2.38479156487675,-0.178281944505069,3,13.8333333333333,29.9
1.8,11.7767849604037,23.9720019417728,2.20485202165829,-0.179939543218457,3,13.8,29.9
1.83333333333333,11.7761473496745,24.0424450326029,2.02220068039639,-0.1826513412619,3,13.7666666666667,29.9
1.86666666666667,11.7755564675774,24.1068078806136,1.84021688625365,-0.181983794142741,3,13.7333333333333,29.9
1.9,11.7750135178915,24.1650972358497,1.65781899448213,-0.182397891771522,3,13.7,29.9
1.93333333333333,11.7745197395612,24.2173019192814,1.47514542696095,-0.182673567521176,3,13.6666666666667,29.9
1.96666666666667,11.7740761118999,24.2634437030035,1.29404618388472,-0.181099243076235,3,13.6333333333333,29.9
2,11.773683561572,24.3035471401162,1.11283808854482,-0.181208095339894,3,13.6,29.9
2.03333333333333,11.7733431512581,24.3376097631089,0.931623499777142,-0.181214588767682,3,13.5666666666667,29.9
2.06666666666667,11.7730554340228,24.3656933339996,0.754110540182218,-0.177512959594924,3,13.5333333333333,29.9
2.1,11.7728208289438,24.387864286014,0.576846834261063,-0.177263705921155,3,13.5,29.9
2.13333333333333,11.7726396244606,24.4041886326646,0.403334386890019,-0.173512447371044,3,13.4666666666667,29.9
2.16666666666667,11.7725115314761,24.4147930820984,0.233651950977506,-0.169682435912513,3,13.4333333333333,29.9
2.2,11.7724362916829,24.4197756525802,0.0661198259702383,-0.167532125007267,3,13.4,29.9
2.23333333333333,11.7724098259401,24.4197506747391,0.0231620762446626,-0.0429577497255757,3,13.3666666666667,29.9
2.26666666666667,11.7724020871328,24.4189876657881,0.00394635855938344,-0.0192157176852792,3,13.3333333333333,29.9
2.3,11.7724020871328,24.4189876657881,0.00498516054136099,0.00103880198197755,5,13.3,29.9
2.33333333333333,11.7724020871328,24.4189876657881,0.00656058220792681,0.00157542166656582,5,13.2666666666667,29.9
2.36666666666667,11.7724020871328,24.4189876657881,0.00852253478040739,0.00196195257248058,5,13.2333333333333,29.9
2.4,11.7724020871328,24.4189876657881,0.010661471931501,0.00213893715109359,5,13.2,29.9
2.43333333333333,11.7724020871328,24.4189876657881,0.0127415262986534,0.00208005436715245,5,13.1666666666667,29.9
2.46666666666667,11.7724020871328,24.4189876657881,0.0145308599255657,0.00178933362691226,5,13.1333333333333,29.9
2.5,11.7724020871328,24.4189876657881,0.015827048969132,0.00129618904356631,5,13.1,29.9
2.53333333333333,11.7724020871328,24.4189876657881,0.0164760911798486,0.000649042210716551,5,13.0666666666667,29.9
2.56666666666667,11.7724020871328,24.4189876657881,0.0163843728269918,-9.17183528567622e-05,5,13.0333333333333,29.9
2.6,11.7724020871328,24.4189876657881,0.0155236074620271,-0.000860765364964688,5,13,29.9
2.63333333333333,11.7724020871328,24.4189876657881,0.0139293238392104,-0.00159428362281673,5,12.9666666666667,29.9
2.66666666666667,11.7724020871328,24.4189876657881,0.0116939105220298,-0.00223541331718055,5,12.9333333333333,29.9
2.7,11.7724020871328,24.4189876657881,0.00895551000461915,-0.00273840051741067,5,12.9,29.9
2.73333333333333,11.7724020871328,24.4189876657881,0.00588419754996206,-0.00307131245465709,5,12.8666666666667,29.9
2.76666666666667,11.7724020871328,24.4189876657881,0.00266689140396827,-0.00321730614599379,5,12.8333333333333,29.9
2.8,11.7724020871328,24.4189876657881,0.000507658860562053,-0.00215923254340622,5,12.8,29.9
2.83333333333333,11.7724020871328,24.4189876657881,0.0034626458972531,0.00295498703669105,5,12.7666666666667,29.9
2.86666666666667,11.7724020871328,24.4189876657881,0.00604482682804631,0.00258218093079321,5,12.7333333333333,29.9
2.9,11.7724020871328,24.4189876657881,0.00813336069603799,0.00208853386799168,5,12.7,29.9
2.93333333333333,11.7724020871328,24.4189876657881,0.00964551513537068,0.00151215443933269,5,12.6666666666667,29.9
2.96666666666667,11.7724020871328,24.4189876657881,0.0105391695793989,0.000893654444028204,5,12.6333333333333,29.9
3,11.7724020871328,24.4189876657881,0.010812283872019,0.000273114292620164,5,12.6,29.9
3.03333333333333,11.7724020871328,24.4189876657881,0.0104996981993981,-0.000312585672620897,5,12.5666666666667,29.9
3.06666666666667,11.7724020871328,24.4189876657881,0.00966777512184998,-0.000831923077548166,5,12.5333333333333,29.9
3.1,11.7724020871328,24.4189876657881,0.0084074842519402,-0.00126029086990978,5,12.5,29.9
3.13333333333333,11.7724020871328,24.4189876657881,0.00682656615777164,-0.00158091809416856,5,12.4666666666667,29.9
3.16666666666667,11.7724020871328,24.4189876657881,0.00504139926655339,-0.00178516689121825,5,12.4333333333333,29.9
3.2,11.7724020871328,24.4189876657881,0.00316913946985928,-0.00187225979669411,5,12.4,29.9
3.23333333333333,11.7724020871328,24.4189876657881,0.00132061611131991,-0.00184852335853938,5,12.3666666666667,29.9
3.26666666666667,11.7724020871328,24.4189876657881,0.000405639745969586,-0.000914976365350323,5,12.3333333333333,29.9
3.3,11.7724020871328,24.4189876657881,0.00192797819389225,0.00152233844792266,5,12.3,29.9
3.33333333333333,11.7724020871328,24.4189876657881,0.00318468919884193,0.00125671100494968,5,12.2666666666667,29.9
3.36666666666667,11.7724020871328,24.4189876657881,0.00413551674608288,0.00095082754724095,5,12.2333333333333,29.9
3.4,11.7724020871328,24.4189876657881,0.00476170968374381,0.000626192937660937,5,12.2,29.9
3.43333333333333,11.7724020871328,24.4189876657881,0.00506477409390809,0.000303064410164275,5,12.1666666666667,29.9
3.46666666666667,11.7724020871328,24.4189876657881,0.00506415435252348,-6.19741384606798e-07,5,12.1333333333333,29.9
3.5,11.7724020871328,24.4189876657881,0.00479410989929632,-0.000270044453227161,5,12.1,29.9
3.53333333333333,11.7724020871328,24.4189876657881,0.00430007251043507,-0.000494037388861251,5,12.0666666666667,29.9
3.56666666666667,11.7724020871328,24.4189876657881,0.00363476632319684,-0.000665306187238233,5,12.0333333333333,29.9
3.6,11.7724020871328,24.4189876657881,0.00285435284724086,-0.000780413475955974,5,12,29.9
3.63333333333333,11.7724020871328,24.4189876657881,0.00201482929639004,-0.000839523550850823,5,11.9666666666667,29.9
3.66666666666667,11.7724020871328,24.4189876657881,0.00116886476950852,-0.000845964526881519,5,11.9333333333333,29.9
3.7,11.7724020871328,24.4189876657881,0.000363209173050765,-0.000805655596457755,5,11.9,29.9
3.73333333333333,11.7724020871328,24.4189876657881,0.000363241802702312,3.26296515477682e-08,5,11.8666666666667,29.9
3.76666666666667,11.7724020871328,24.4189876657881,0.000980692387392284,0.000617450584689971,5,11.8333333333333,29.9
3.8,11.7724020871328,24.4189876657881,0.00146901545139155,0.00048832306399927,5,11.8,29.9
3.83333333333333,11.7724020871328,24.4189876657881,0.00181769551029612,0.000348680058904565,5,11.7666666666667,29.9
3.86666666666667,11.7724020871328,24.4189876657881,0.00202522802584684,0.000207532515550722,5,11.7333333333333,29.9
3.9,11.7724020871328,24.4189876657881,0.00209807878483839,7.28507589915469e-05,5,11.7,29.9
3.93333333333333,11.7724020871328,24.4189876657881,0.00204931980031888,-4.87589845195109e-05,5,11.6666666666667,29.9
3.96666666666667,11.7724020871328,24.4189876657881,0.00189706218715903,-0.000152257613159846,5,11.6333333333333,29.9
4,11.7724020871328,24.4189876657881,0.00166280273843293,-0.000234259448726102,5,11.6,29.9
4.03333333333333,11.7724020871328,24.4189876657881,0.00136979073883798,-0.000293011999594948,5,11.5666666666667,29.9
4.06666666666667,11.7724020871328,24.4189876657881,0.00104150638552274,-0.000328284353315235,5,11.5333333333333,29.9
4.1,11.7724020871328,24.4189876657881,0.000700323631581719,-0.000341182753941025,5,11.5,29.9
4.13333333333333,11.7724020871328,24.4189876657881,0.000366409895875584,-0.000333913735706135,5,11.4666666666667,29.9
4.16666666666667,11.7724020871328,24.4189876657881,5.68943595478126e-05,-0.000309515536327771,5,11.4333333333333,29.9
4.2,11.7724020871328,24.4189876657881,0.000214683222650388,0.000157788863102575,5,11.4,29.9
4.23333333333333,11.7724020871328,24.4189876657881,0.000438649081021287,0.0002239658583709,5,11.3666666666667,29.9
4.26666666666667,11.7724020871328,24.4189876657881,0.000609218294412679,0.000170569213391392,5,11.3333333333333,29.9
4.3,11.7724020871328,24.4189876657881,0.000724296671770615,0.000115078377357935,5,11.3,29.9
4.33333333333333,11.7724020871328,24.4189876657881,0.000785102629307025,6.080595753641e-05,5,11.2666666666667,29.9
4.36666666666667,11.7724020871328,24.4189876657881,0.00079565479184106,1.05521625340352e-05,5,11.2333333333333,29.9
4.4,11.7724020871328,24.4189876657881,0.000762172493782463,-3.34822980585965e-05,5,11.2,29.9
4.43333333333333,11.7724020871328,24.4189876657881,0.000692434873496512,-6.97376202859516e-05,5,11.1666666666667,29.9
4.46666666666667,11.7724020871328,24.4189876657881,0.00059514033994689,-9.72945335496215e-05,5,11.1333333333333,29.9
4.5,11.7724020871328,24.4189876657881,0.000479302411443288,-0.000115837928503602,5,11.1,29.9
4.53333333333333,11.7724020871328,24.4189876657881,0.000353710880942826,-0.000125591530500462,5,11.0666666666667,29.9
4.56666666666667,11.7724020871328,24.4189876657881,0.000226479537983254,-0.000127231342959572,5,11.0333333333333,29.9
4.6,11.7724020871328,24.4189876657881,0.00010469381743565,-0.000121785720547605,5,11,29.9
4.63333333333333,11.7724020871328,24.4189876657881,5.83577629228745e-06,-9.88580411433625e-05,5,10.9666666666667,29.9
4.66666666666667,11.7724020871328,24.4189876657881,0.00010071541784228,9.48796415499924e-05,5,10.9333333333333,29.9
4.7,11.7724020871328,24.4189876657881,0.00017701161392593,7.62961960836497e-05,5,10.9,29.9
4.73333333333333,11.7724020871328,24.4189876657881,0.000233208073971244,5.61964600453148e-05,5,10.8666666666667,29.9
4.76666666666667,11.7724020871328,24.4189876657881,0.000269090399735905,3.58823257646604e-05,5,10.8333333333333,29.9
4.8,11.7724020871328,24.4189876657881,0.000285575186561823,1.64847868259186e-05,5,10.8,29.9
4.83333333333333,11.7724020871328,24.4189876657881,0.000284500895527674,-1.07429103414952e-06,5,10.7666666666667,29.9
4.86666666666667,11.7724020871328,24.4189876657881,0.000268397529912802,-1.61033656148717e-05,5,10.7333333333333,29.9
4.9,11.7724020871328,24.4189876657881,0.000240250907195364,-2.81466227174378e-05,5,10.7,29.9
4.93333333333333,11.7724020871328,24.4189876657881,0.000203275362463578,-3.69755447317861e-05,5,10.6666666666667,29.9
4.96666666666667,11.7724020871328,24.4189876657881,0.000160706265170805,-4.25690972927737e-05,5,10.6333333333333,29.9
5,11.7724020871328,24.4189876657881,0.000115620990429277,-4.5085274741528e-05,5,10.6,29.9
5.03333333333333,11.7724020871328,24.4189876657881,7.07941557601459e-05,-4.48268346691308e-05,5,10.5666666666667,29.9
5.06666666666667,11.7724020871328,24.4189876657881,2.8590187846266e-05,-4.22039679138799e-05,5,10.5333333333333,29.9
5.1,11.7724020871328,24.4189876657881,9.10623545524596e-06,-1.948395239102e-05,5,10.5,29.9
5.13333333333333,11.7724020871328,24.4189876657881,4.09235056367536e-05,3.18172701815076e-05,5,10.4666666666667,29.9
5.16666666666667,11.7724020871328,24.4189876657881,6.60035772996631e-05,2.50800716629095e-05,5,10.4333333333333,29.9
5.2,11.7724020871328,24.4189876657881,8.39743689295325e-05,1.79707916298694e-05,5,10.4,29.9
5.23333333333333,11.7724020871328,24.4189876657881,9.48996694618066e-05,1.09253005322742e-05,5,10.3666666666667,29.9
5.26666666666667,11.7724020871328,24.4189876657881,9.92125752595619e-05,4.31290579775531e-06,5,10.3333333333333,29.9
5.3,11.7724020871328,24.4189876657881,9.76385098090039e-05,-1.57406545055803e-06,5,10.3,29.9
5.33333333333333,11.7724020871328,24.4189876657881,9.11135653608085e-05,-6.52494444819538e-06,5,10.2666666666667,29.9
5.36666666666667,11.7724020871328,24.4189876657881,8.07033199888015e-05,-1.04102453720071e-05,5,10.2333333333333,29.9
5.4,11.7724020871328,24.4189876657881,6.75264983921939e-05,-1.31768215966076e-05,5,10.2,29.9
5.43333333333333,11.7724020871328,24.4189876657881,5.26869337861383e-05,-1.48395646060555e-05,5,10.1666666666667,29.9
5.46666666666667,11.7724020871328,24.4189876657881,3.721632101239e-05,-1.54706127737483e-05,5,10.1333333333333,29.9
5.5,11.7724020871328,24.4189876657881,2.20292898688876e-05,-1.51870311435024e-05,5,10.1,29.9
5.53333333333333,11.7724020871328,24.4189876657881,7.89142520180972e-06,-1.41378646670779e-05,5,10.0666666666667,29.9
5.56666666666667,11.7724020871328,24.4189876657881,4.59994208890244e-06,-3.29148311290728e-06,5,10.0333333333333,29.9
5.6,11.7724020871328,24.4189876657881,1.50230217699978e-05,1.04230796810954e-05,5,10,29.9
5.63333333333333,11.7724020871328,24.4189876657881,2.31283027188016e-05,8.10528094880377e-06,5,9.96666666666667,29.9
5.66666666666667,11.7724020871328,24.4189876657881,2.88264881131654e-05,5.69818539436378e-06,5,9.93333333333333,29.9
5.7,11.7724020871328,24.4189876657881,3.21695918332363e-05,3.34310372007089e-06,5,9.9,29.9
5.73333333333333,11.7724020871328,24.4189876657881,3.33272391758954e-05,1.15764734265915e-06,5,9.86666666666667,29.9
5.76666666666667,11.7724020871328,24.4189876657881,3.25601697763597e-05,-7.67069399535734e-07,5,9.83333333333334,29.9
5.8,11.7724020871328,24.4189876657881,3.01927928448134e-05,-2.36737693154631e-06,5,9.8,29.9
5.83333333333333,11.7724020871328,24.4189876657881,2.65864181677726e-05,-3.60637467704082e-06,5,9.76666666666667,29.9
5.86666666666667,11.7724020871328,24.4189876657881,2.21145052510482e-05,-4.47191291672435e-06,5,9.73333333333333,29.9
5.9,11.7724020871328,24.4189876657881,1.71409612201205e-05,-4.97354403092769e-06,5,9.7,29.9
5.93333333333333,11.7724020871328,24.4189876657881,1.20021974319789e-05,-5.13876378814164e-06,5,9.66666666666667,29.9
5.96666666666667,11.7724020871328,24.4189876657881,6.99334412617871e-06,-5.00885330580018e-06,5,9.63333333333333,29.9
6,11.7724020871328,24.4189876657881,2.35873732567928e-06,-4.63460680049943e-06,5,9.6,29.9
6.03333333333333,11.7724020871328,24.4189876657881,1.71345572147854e-06,-6.45281604200739e-07,5,9.56666666666667,29.9
6.06666666666667,11.7724020871328,24.4189876657881,5.092809148083e-06,3.37935342660446e-06,5,9.53333333333333,29.9
6.1,11.7724020871328,24.4189876657881,7.70489939030121e-06,2.61209024221821e-06,5,9.5,29.9
6.13333333333333,11.7724020871328,24.4189876657881,9.52684836000764e-06,1.82194896970643e-06,5,9.46666666666667,29.9
6.16666666666667,11.7724020871328,24.4189876657881,1.05807984966334e-05,1.05395013662578e-06,5,9.43333333333333,29.9
6.2,11.7724020871328,24.4189876657881,1.09259814138933e-05,3.45182917259909e-07,5,9.4,29.9
