Time,x_ego,y_ego,velocity,acceleration,action,x_ped,y_ped
0,11.8,15.9,5,0,1,15.5,29.9
0.0333333333333333,11.8,16.0666076888419,4.99642261439338,-0.0035773856066168,1,15.5,29.9
0.0666666666666667,11.8,16.2330926531145,4.99264756783477,-0.00377504655861216,1,15.5,29.9
0.1,11.8,16.399449296924,4.98873130122091,-0.00391626661385835,1,15.5,29.9
0.133333333333333,11.8,16.5656736245138,4.98471426828108,-0.00401703293983147,1,15.5,29.9
0.166666666666667,11.8,16.7317627870126,4.98062546389497,-0.00408880438611448,1,15.5,29.9
0.2,11.8,16.8977147575669,4.97648566969706,-0.00413979419790333,1,15.5,29.9
0.233333333333333,11.8,17.063528098494,4.97230978036584,-0.00417588933122204,1,15.5,29.9
0.266666666666667,11.8,17.2292017943893,4.96810847105553,-0.00420130931030815,1,15.5,29.9
0.3,11.8,17.3947351325064,4.96388939262275,-0.00421907843277847,1,15.5,29.9
0.333333333333333,11.8,17.5601276170202,4.95965802839236,-0.00423136423039949,1,15.5,29.9
0.366666666666667,11.8,17.7253789075748,4.95541830829244,-0.00423972009991047,1,15.5,29.9
0.4,11.8,17.8904887752388,4.95117304903021,-0.00424525926223307,1,15.5,29.9
0.433333333333333,11.8,18.0554570709351,4.94692426953351,-0.00424877949670321,1,15.5,29.9
0.466666666666667,11.8,18.2202837028143,4.94267341695966,-0.00425085257384605,1,15.5,29.9
0.5,11.8,18.3849686200364,4.93842152859998,-0.00425188835968093,1,15.5,29.9
0.533333333333333,11.8000060162667,18.5495118011347,4.93416937438023,-0.00425215421974912,1,15.5,29.9
0.566666666666667,11.8000446414953,18.7139132451911,4.92991772831624,-0.00425164606399697,1,15.5,29.9
0.6,11.8001383000607,18.8781729633242,4.92566724791371,-0.00425048040252918,1,15.5,29.9
0.633333333333333,11.8002970308065,19.042290971538,4.92141814134062,-0.00424910657308253,1,15.5,29.9
0.666666666666667,11.8005205618601,19.2062672882294,4.91717023822628,-0.00424790311434631,1,15.5,29.9
0.7,11.8008012457191,19.3701019363072,4.91292325021184,-0.00424698801443846,1,15.5,29.9
0.733333333333333,11.8011275394283,19.533794946846,4.90867706638484,-0.00424618382700004,1,15.5,29.9
0.766666666666667,11.8014876938566,19.6973463606315,4.90443171849438,-0.00424534789045872,1,15.5,29.9
0.8,11.801869025163,19.8607562294083,4.90018728509585,-0.00424443339852765,1,15.5,29.9
0.833333333333333,11.8022585087705,20.0240246151138,4.89594394453676,-0.00424334055909004,1,15.5,29.9
0.866666666666667,11.8026431861186,20.18715158771,4.89170186065031,-0.00424208388645475,1,15.5,29.9
0.9,11.8030098894044,20.3501372228992,4.88746130317844,-0.0042405574718698,1,15.5,29.9
0.933333333333333,11.8033493793413,20.5129815937463,4.88322250458949,-0.00423879858894782,1,15.5,29.9
0.966666666666667,11.8036535182072,20.6756847709702,4.8789855218875,-0.00423698270198525,1,15.5,29.9
1,11.8039107102416,20.8382468277058,4.8747504783021,-0.00423504358540505,1,15.5,29.9
1.03333333333333,11.8041072137907,21.0006678362145,4.87051761900655,-0.00423285929555384,1,15.5,29.9
1.06666666666667,11.8042313610334,21.1629478594921,4.86628711127297,-0.00423050773357847,1,15.5,29.9
1.1,11.8042758401481,21.3250869462881,4.86205895651624,-0.00422815475672422,1,15.5,29.9
1.13333333333333,11.8042364029543,21.4870851326927,4.85783294755939,-0.00422600895685221,1,15.5,29.9
1.16666666666667,11.8041148536151,21.6489424409036,4.85360862182179,-0.00422432573759846,1,15.5,29.9
1.2,11.8039179574232,21.8106588859207,4.84938552503464,-0.00422309678715127,1,15.5,29.9
1.23333333333333,11.8036551893665,21.9722344836455,4.84516335971301,-0.00422216532163322,1,15.5,29.9
1.26666666666667,11.8033368937348,22.1336692566162,4.84094202893475,-0.00422133077825659,1,15.5,29.9
1.3,11.8029729537916,22.2949632366502,4.83672159981755,-0.00422042911720588,1,15.5,29.9
1.33333333333333,11.8025719590638,22.4561164647549,4.83250223253978,-0.00421936727776728,1,15.5,29.9
1.36666666666667,11.8021407873528,22.6171289945309,4.8282848387647,-0.00421739377508246,1,15.5,29.9
1.4,11.8016844890891,22.7780009873737,4.82407593833477,-0.00420890042992106,1,15.5,29.9
1.43333333333333,11.8012063648683,22.9387329396836,4.81988888159249,-0.00418705674228104,1,15.5,29.9
1.46666666666667,11.8007081504641,23.0993258598291,4.81574064157766,-0.00414824001483094,1,15.5,29.9
1.5,11.8001902539654,23.2597813276883,4.81164818126972,-0.00409246030794286,1,15.5,29.9
1.53333333333333,11.7996520163712,23.4201014452595,4.80762575206685,-0.004022429202867,1,15.5,29.9
1.56666666666667,11.7990919840607,23.5802887215916,4.80368351790955,-0.00394223415730011,1,15.5,29.9
1.6,11.7985081878016,23.7403459138826,4.79982613146355,-0.00385738644600675,1,15.5,29.9
1.63333333333333,11.7978984207217,23.9002758396543,4.79605292772626,-0.00377320373728551,1,15.5,29.9
1.66666666666667,11.7972605013268,24.0600812265411,4.79235946642422,-0.00369346130204296,1,15.5,29.9
1.7,11.7965924757624,24.2197758576282,4.79009492719082,-0.00226453923340131,1,15.5,29.9
1.73333333333333,11.7958924743233,24.3795096163698,4.79581955748039,0.00572463028957326,1,15.5,29.9
1.76666666666667,11.7951585743029,24.5396232608869,4.81310081356082,0.0172812560804312,1,15.5,29.9
1.8,11.7943896422859,24.7005091540309,4.84200452989997,0.0289037163391503,4,15.5,29.9
1.83333333333333,11.7935874508203,24.8625338355204,4.88118327698463,0.0391787470846614,4,15.5,29.9
1.86666666666667,11.7927562336987,25.0260147940007,4.92913662433738,0.0479533473527445,4,15.5,29.9
1.9,11.7919017209768,25.1912191522102,4.9843422041557,0.0552055798183186,4,15.5,29.9
1.93333333333333,11.791030204085,25.3583644544146,5.0453768298633,0.0610346257076024,4,15.5,29.9
1.96666666666667,11.7901491652734,25.5276242246452,5.11102996450678,0.0656531346434832,4,15.5,29.9
2,11.7892691252305,25.6991354320242,5.18031424995875,0.069284285451972,4,15.5,29.9
2.03333333333333,11.7883977451955,25.8730055123232,5.25244691859379,0.0721326686350334,4,15.5,29.9
2.06666666666667,11.7875425997764,26.0493194649258,5.32686576101309,0.0744188424193046,4,15.5,29.9
2.1,11.7867104905767,26.2281470656721,5.40321704661892,0.0763512856058242,4,15.5,29.9
2.13333333333333,11.7859092189762,26.4095496624244,5.48134285023985,0.0781258036209378,4,15.5,29.9
2.16666666666667,11.7851477797919,26.593585570923,5.56120360078963,0.079860750549777,4,15.5,29.9
2.2,11.7844346656118,26.7803128060242,5.64281221300392,0.0816086122142945,4,15.5,29.9
2.23333333333333,11.783774205505,26.969789693869,5.72616624966929,0.0833540366653676,4,15.5,29.9
2.26666666666667,11.7831710093898,27.162074025777,5.81123812779129,0.0850718781219957,4,15.5,29.9
2.3,11.7826288269759,27.3572219962184,5.89795466877182,0.0867165409805324,4,15.5,29.9
2.33333333333333,11.7821499396418,27.5552865516434,5.98619954096443,0.0882448721926048,4,15.5,29.9
2.36666666666667,11.7817333607437,27.7563159648941,6.07580024217564,0.0896007012112197,4,15.5,29.9
2.4,11.7813757392083,27.9603517895423,6.16654243739666,0.0907421952210123,4,15.5,29.9
2.43333333333333,11.7810727778578,28.1674288154034,6.25823722469392,0.0916947872972633,4,15.5,29.9
2.46666666666667,11.7808202586479,28.3775756311091,6.35068761211542,0.0924503874214997,4,15.5,29.9
2.5,11.7806146836792,28.5908139107573,6.44369604306738,0.0930084309519588,4,15.5,29.9
2.53333333333333,11.7804535845996,28.8071598792537,6.53712642085078,0.0934303777834034,4,15.5,29.9
2.56666666666667,11.7803355979203,29.0266252753781,6.63082878933504,0.0937023684842542,4,15.5,29.9
2.6,11.7802603978392,29.2492161826597,6.72463602593344,0.0938072365984031,4,15.5,29.9
2.63333333333333,11.7802285471623,29.4749345846354,6.81847098610999,0.0938349601765545,4,15.5,29.9
2.66666666666667,11.7802413212243,29.7037809270234,6.91231016925128,0.093839183141287,4,15.5,29.9
2.7,11.780300537908,29.9357550772675,7.00613730809229,0.0938271388410117,4,15.5,29.9
2.73333333333333,11.7804084036354,30.1708565149205,7.09994939715709,0.0938120890648007,4,15.5,29.9
2.76666666666667,11.7805673771154,30.4090848949585,7.19375773729114,0.0938083401340473,4,15.5,29.9
2.8,11.7807800523264,30.6504403268254,7.28757722214015,0.0938194848490088,4,15.5,29.9
2.83333333333333,11.7810490610875,30.8949234039515,7.38142164965499,0.0938444275148358,4,15.5,29.9
2.86666666666667,11.7813769965594,31.1425351355913,7.47530214887332,0.0938804992183302,4,15.5,29.9
2.9,11.7817663595603,31.3932768528624,7.56922700521228,0.0939248563389619,4,15.5,29.9
2.93333333333333,11.782219528716,31.6471501016982,7.66319895111413,0.0939719459018562,4,15.5,29.9
2.96666666666667,11.7827388092997,31.9042398163188,7.76434581561804,0.101146864503905,4,15.5,29.9
3,11.7833266256092,32.1648688451973,7.8743133510228,0.109967535404765,4,15.5,29.9
3.03333333333333,11.7839853643694,32.4292212486004,7.98694847875075,0.112635127727946,4,15.5,29.9
3.06666666666667,11.7847173033262,32.6973170686001,8.09845129157733,0.111502812826578,4,15.5,29.9
3.1,11.7855246163767,32.9690791499798,8.20668228535189,0.108230993774557,4,15.5,29.9
3.13333333333333,11.7864093847052,33.244376911497,8.31047543664693,0.103793151295049,4,15.5,29.9
3.16666666666667,11.7873736051927,33.5230539485833,8.4094449146414,0.0989694779944656,4,15.5,29.9
3.2,11.7884192050989,33.8049505859736,8.50370888795224,0.094263973310845,4,15.5,29.9
3.23333333333333,11.7895480463909,34.0899151754867,8.5936119040938,0.089903016141557,4,15.5,29.9
3.26666666666667,11.7907619270283,34.3778100785839,8.67963183524338,0.0860199311495755,4,15.5,29.9
3.3,11.7920625822126,34.6685143813272,8.76228171141001,0.082649876166629,4,15.5,29.9
3.33333333333333,11.7934516862226,34.9619240319256,8.84205389261637,0.0797721812063603,4,15.5,29.9
3.36666666666667,11.7949308567204,35.2579506127624,8.91938975468788,0.0773358620715179,4,15.5,29.9
3.4,11.7965016612583,35.5565192888072,8.99466155129505,0.075271796607165,4,15.5,29.9
3.43333333333333,11.7981656232104,35.8575659382979,9.06812749471189,0.0734659434168439,4,15.5,29.9
3.46666666666667,11.7999242235199,36.1610333727581,9.13997101319343,0.0718435184815398,4,15.5,29.9
3.5,11.8017789162859,36.4668711771307,9.21042766978164,0.0704566565882114,4,15.5,29.9
3.53333333333333,11.8037311529826,36.7750375338286,9.27975607246955,0.0693284026879049,4,15.5,29.9
3.56666666666667,11.805782391699,37.0854982020462,9.3481462342371,0.0683901617675549,4,15.5,29.9
3.6,11.8079340936083,37.3982238007695,9.41570333868138,0.0675571044442762,4,15.5,29.9
3.63333333333333,11.8101877186117,37.7131878386032,9.48250468649158,0.0668013478101983,4,15.5,29.9
3.66666666666667,11.8125447267598,38.0303663732173,9.54862832747533,0.0661236409837471,4,15.5,29.9
3.7,11.8150054620188,38.3497381356916,9.61415461335921,0.0655262858838856,4,15.5,29.9
3.73333333333333,11.8175646308811,38.671284512235,9.67915903211588,0.065004418756665,4,15.5,29.9
3.76666666666667,11.820207044177,38.9949893406974,9.74370730658342,0.0645482744675405,4,15.5,29.9
3.8,11.822904799516,39.3208384640205,9.80784474854247,0.0641374419590566,4,15.5,29.9
