Time,x_ego,y_ego,velocity,acceleration,action,x_ped,y_ped
0,11.8,8.9,7,0,1,15.5,29.9
0.0333333333333333,11.8000041796125,9.13327037938785,6.99615578816176,-0.00384421183823669,1,15.4502170138889,29.9
0.0666666666666667,11.8000303314699,9.36640659855808,6.99196956641274,-0.00418622174902605,1,15.4008680555556,29.9
0.1,11.8000926098639,9.59940075300012,6.98769531271503,-0.00427425369770873,1,15.351953125,29.9
0.133333333333333,11.8001983545981,9.83225377515495,6.98349833673929,-0.00419697597573787,1,15.3034722222222,29.9
0.166666666666667,11.8003501253732,10.0649678497707,6.97935694703285,-0.00414138970643929,1,15.2554253472222,29.9
0.2,11.8005475247231,10.2975445470903,6.97525557468853,-0.00410137234432195,1,15.2078125,29.9
0.233333333333333,11.8007885944745,10.5299849978611,6.97118306873924,-0.00407250594928765,1,15.1606336805556,29.9
0.266666666666667,11.801070739625,10.7622900188979,6.96713145698599,-0.00405161175325475,1,15.1138888888889,29.9
0.3,11.8013912463857,10.9944602028902,6.96309504433922,-0.00403641264676224,1,15.067578125,29.9
0.333333333333333,11.8017475156913,11.2264959824836,6.95906976104049,-0.00402528329873153,1,15.0217013888889,29.9
0.366666666666667,11.8021371394093,11.4583976759489,6.9550526957372,-0.00401706530329626,1,14.9762586805556,29.9
0.4,11.8025579201775,11.6901655197135,6.95104176336867,-0.00401093236852201,1,14.93125,29.9
0.433333333333333,11.8030078951068,11.921799691522,6.94703546967681,-0.00400629369186767,1,14.8866753472222,29.9
0.466666666666667,11.8034853836359,12.1533003269063,6.94303274401881,-0.00400272565800019,1,14.8425347222222,29.9
0.5,11.8039890506013,12.3846675308923,6.93903282009106,-0.0039999239277444,1,14.798828125,29.9
0.533333333333333,11.8045179612248,12.6159013863282,6.93503515024424,-0.00399766984681804,1,14.7555555555556,29.9
0.566666666666667,11.8050716043341,12.8470019598425,6.93103934353105,-0.00399580671319111,1,14.7127170138889,29.9
0.6,11.8056498695,13.0779693061539,6.92704512077658,-0.00399422275447581,1,14.6703125,29.9
0.633333333333333,11.8062529773089,13.308803471241,6.92305228207517,-0.0039928387014081,1,14.6283420138889,29.9
0.666666666666667,11.8068813745532,13.5395044947211,6.91906068346958,-0.00399159860558829,1,14.5868055555556,29.9
0.7,11.8075356141409,13.7700724116654,6.91507022042285,-0.00399046304672712,1,14.545703125,29.9
0.733333333333333,11.8082162415235,14.000507253993,6.91108081626878,-0.00398940415407001,1,14.5050347222222,29.9
0.766666666666667,11.8089237058809,14.2308090515282,6.9070924142552,-0.00398840201358386,1,14.4648003472222,29.9
0.8,11.8096583069933,14.4609778327761,6.90310497212931,-0.00398744212589452,1,14.425,29.9
0.833333333333333,11.8104201800806,14.6910136254557,6.89911845847121,-0.00398651365809588,1,14.3856336805556,29.9
0.866666666666667,11.8112093131625,14.9209164568305,6.89513285017505,-0.00398560829616379,1,14.3467013888889,29.9
0.9,11.8120255862864,15.1506863538828,6.8911481306315,-0.00398471954354207,1,14.308203125,29.9
0.933333333333333,11.8128688199699,15.3803233433779,6.88716428830364,-0.00398384232785975,1,14.2701388888889,29.9
0.966666666666667,11.8137388212368,15.6098274518672,6.88318131551579,-0.00398297278784998,1,14.2325086805556,29.9
1,11.8146351470214,15.8391118726227,6.87398930369691,-0.00919201181888507,1,14.1953125,29.9
1.03333333333333,11.8155569077832,16.0679455760219,6.85614473658556,-0.0178445671113519,1,14.1585503472222,29.9
1.06666666666667,11.8165031899687,16.296097930463,6.83311488137268,-0.0230298552128776,3,14.1222222222222,29.9
1.1,11.8174734275351,16.5234538748315,6.8083667103234,-0.0247481710492847,3,14.086328125,29.9
1.13333333333333,11.8184666986615,16.7498119016756,6.77324665934961,-0.0351200509737817,3,14.0508680555556,29.9
1.16666666666667,11.8194819016076,16.9749414794194,6.73466657065025,-0.0385800886993648,3,14.0158420138889,29.9
1.2,11.8205183671653,17.1987559882999,6.69434942397967,-0.0403171466705832,3,13.98125,29.9
1.23333333333333,11.8215753462979,17.4211691955728,6.65059551206195,-0.0437539119177162,3,13.9470920138889,29.9
1.26666666666667,11.8226520174956,17.6420948920061,6.60510587597655,-0.0454896360853985,3,13.9133680555556,29.9
1.3,11.8237476119992,17.861475590539,6.55790280222567,-0.0472030737508842,3,13.9133680555556,29.9
1.33333333333333,11.824861193584,18.0792251181743,6.507242811939,-0.0506599902866656,3,13.9133680555556,29.9
1.36666666666667,11.8259915348692,18.2951995537303,6.45140440651525,-0.0558384054237466,3,13.9133680555556,29.9
1.4,11.8271371048186,18.5091975979897,6.38866631700032,-0.0627380895149354,3,13.9133680555556,29.9
1.43333333333333,11.8282961788977,18.720988920447,6.31900784412851,-0.0696584728718097,3,13.9133680555556,29.9
1.46666666666667,11.8294670947909,18.9303719310352,6.24417406000891,-0.0748337841195958,3,13.9133680555556,29.9
1.5,11.8306478341047,19.1370876710536,6.15897782815586,-0.0851962318530495,3,13.9133680555556,29.9
1.53333333333333,11.8318359979156,19.3408194607718,6.065142867374,-0.0938349607818685,3,13.9133680555556,29.9
1.56666666666667,11.8330293515258,19.5413084387471,5.96441456662512,-0.10072830074888,3,13.9133680555556,29.9
1.6,11.8342258357481,19.7383535563889,5.85851631454288,-0.105898252082232,3,13.9133680555556,29.9
1.63333333333333,11.8354235843021,19.931811207347,5.74917125480538,-0.109345059737503,3,13.9133680555556,29.9
1.66666666666667,11.8366206400057,20.1215378149581,5.63465802886475,-0.114513225940627,3,13.9133680555556,29.9
1.7,11.8378146527092,20.3073324271586,5.51325538231713,-0.121402646547619,3,13.9133680555556,29.9
1.73333333333333,11.8390035138456,20.489051528898,5.39013068393162,-0.123124698385515,3,13.9133680555556,29.9
1.76666666666667,11.8401853807901,20.6666093951443,5.26358404955712,-0.126546634374504,3,13.9133680555556,29.9
1.8,11.8413583818695,20.8399203183457,5.13531631576869,-0.128267733788423,3,13.9133680555556,29.9
1.83333333333333,11.8425207959823,21.0089273063088,5.00534956795689,-0.129966747811799,3,13.9133680555556,29.9
1.86666666666667,11.8436707297755,21.1735446737694,4.87194010225353,-0.133409465703364,3,13.9133680555556,29.9
1.9,11.8448059395407,21.3336289786104,4.73336614540404,-0.138573956849488,3,13.9133680555556,29.9
1.93333333333333,11.845924171152,21.4890367939628,4.59135034567182,-0.142015799732219,3,13.9133680555556,29.9
1.96666666666667,11.8470231458238,21.639623699686,4.4440830420941,-0.147267303577719,3,13.9133680555556,29.9
2,11.8481007290325,21.7852710178499,4.29498243604329,-0.149100606050812,3,13.9133680555556,29.9
2.03333333333333,11.8491551412408,21.9259184697219,4.14409525609418,-0.150887179949113,3,13.9133680555556,29.9
2.06666666666667,11.8501847943583,22.0615358044686,3.99317718113854,-0.150918074955635,3,13.9133680555556,29.9
2.1,11.8511879196098,22.192064653917,3.83878604386947,-0.15439113726907,3,13.9133680555556,29.9
2.13333333333333,11.8521627648815,22.3174473343725,3.68440537764144,-0.154380666228034,3,13.9133680555556,29.9
2.16666666666667,11.8531075940087,22.4376266527976,3.52658141692542,-0.157823960716017,3,13.9133680555556,29.9
2.2,11.8540203014452,22.5524880044348,3.36532331863584,-0.161258098289587,3,13.9133680555556,29.9
2.23333333333333,11.8548987995842,22.6619174113773,3.20065965481868,-0.164663663817157,3,13.9133680555556,29.9
2.26666666666667,11.8557410156149,22.7658010915366,3.03257368124346,-0.168085973575219,3,13.9133680555556,29.9
2.3,11.8565448881743,22.8640250465714,2.86106921946015,-0.171504461783312,3,13.9133680555556,29.9
2.33333333333333,11.8573081643971,22.9564466880464,2.6844270641225,-0.176642155337642,3,13.9133680555556,29.9
2.36666666666667,11.8580290144675,23.0429812852318,2.50783792774433,-0.176589136378172,3,13.9133680555556,29.9
2.4,11.8587058363519,23.1235732374684,2.32785904307515,-0.179978884669181,3,13.9133680555556,29.9
2.43333333333333,11.859336883971,23.1981382041779,2.14625604544815,-0.181602997627003,3,13.9133680555556,29.9
2.46666666666667,11.859920634631,23.2666089080937,1.96252040639469,-0.183735639053462,3,13.9133680555556,29.9
2.5,11.8604558413898,23.3289412565447,1.77806100206111,-0.184459404333579,3,13.9133680555556,29.9
2.53333333333333,11.8609413512472,23.3850900717391,1.59152586896541,-0.186535133095697,3,13.9133680555556,29.9
2.56666666666667,11.86137637551,23.4350461442643,1.40650656960333,-0.185019299362082,3,13.9133680555556,29.9
2.6,11.8617606795257,23.4788621896478,1.22312576142217,-0.183380808181159,3,13.9133680555556,29.9
2.63333333333333,11.862094141017,23.516593731253,1.0414332744326,-0.181692486989573,3,13.9133680555556,29.9
2.66666666666667,11.8623767440517,23.5482989879807,0.86158452732953,-0.179848747103068,3,13.9133680555556,29.9
2.7,11.8626090448251,23.574101153357,0.687228383919207,-0.174356143410323,3,13.9133680555556,29.9
2.73333333333333,11.8627916811225,23.5941238845341,0.514806959081372,-0.172421424837835,3,13.9133680555556,29.9
2.76666666666667,11.8629251456658,23.608462012082,0.346155005366875,-0.168651953714497,3,13.9133680555556,29.9
2.8,11.8630102343885,23.6172416447634,0.181269905658656,-0.164885099708219,3,13.9133680555556,29.9
2.83333333333333,11.8630475817022,23.6205599546203,0.0185173368881721,-0.162752568770484,3,13.9133680555556,29.9
2.86666666666667,11.8630416958594,23.6190170268732,0.0677887437321579,0.0492714068439858,4,13.9133680555556,29.9
2.9,11.8630247171543,23.6167576718284,0.00212535489935931,-0.0656633888327986,3,13.9133680555556,29.9
2.93333333333333,11.8630247171543,23.6167576718284,0.00394117066066771,0.00181581576130841,5,13.9133680555556,29.9
2.96666666666667,11.8630247171543,23.6167576718284,0.00625328706802881,0.00231211640736109,5,13.9133680555556,29.9
3,11.8630247171543,23.6167576718284,0.00887294394416101,0.0026196568761322,5,13.9133680555556,29.9
3.03333333333333,11.8630247171543,23.6167576718284,0.0115619769897807,0.00268903304561974,5,13.9133680555556,29.9
3.06666666666667,11.8630247171543,23.6167576718284,0.0140663010348218,0.00250432404504108,5,13.9133680555556,29.9
3.1,11.8630247171543,23.6167576718284,0.0161459187137469,0.00207961767892511,5,13.9133680555556,29.9
3.13333333333333,11.8630247171543,23.6167576718284,0.0175993954934911,0.00145347677974415,5,13.9133680555556,29.9
3.16666666666667,11.8630247171543,23.6167576718284,0.0182815277344195,0.000682132240928442,5,13.9133680555556,29.9
3.2,11.8630247171543,23.6167576718284,0.0181136849665668,-0.000167842767852762,5,13.9133680555556,29.9
3.23333333333333,11.8630247171543,23.6167576718284,0.017086979685387,-0.00102670528117981,5,13.9133680555556,29.9
3.26666666666667,11.8630247171543,23.6167576718284,0.0152589710851714,-0.00182800860021556,5,13.9133680555556,29.9
3.3,11.8630247171543,23.6167576718284,0.012745021312054,-0.00251394977311744,5,13.9133680555556,29.9
3.33333333333333,11.8630247171543,23.6167576718284,0.0097056859027086,-0.00303933540934535,5,13.9133680555556,29.9
3.36666666666667,11.8630247171543,23.6167576718284,0.00633163806906093,-0.00337404783364767,5,13.9133680555556,29.9
3.4,11.8630247171543,23.6167576718284,0.00282761324152252,-0.00350402482753841,5,13.9133680555556,29.9
3.43333333333333,11.8630247171543,23.6167576718284,0.000603263078365332,-0.00222435016315719,5,13.9133680555556,29.9
3.46666666666667,11.8630247171543,23.6167576718284,0.00377360883736853,0.00317034575900319,5,13.9133680555556,29.9
3.5,11.8630247171543,23.6167576718284,0.0065234893038562,0.00274988046648767,5,13.9133680555556,29.9
3.53333333333333,11.8630247171543,23.6167576718284,0.00872909356921452,0.00220560426535832,5,13.9133680555556,29.9
3.56666666666667,11.8630247171543,23.6167576718284,0.0103080827928584,0.00157898922364392,5,13.9133680555556,29.9
3.6,11.8630247171543,23.6167576718284,0.011221587839392,0.000913505046533583,5,13.9133680555556,29.9
3.63333333333333,11.8630247171543,23.6167576718284,0.0114730768872183,0.00025148904782628,5,13.9133680555556,29.9
3.66666666666667,11.8630247171543,23.6167576718284,0.0111045086925403,-0.00036856819467797,5,13.9133680555556,29.9
3.7,11.8630247171543,23.6167576718284,0.0101903273967651,-0.00091418129577518,5,13.9133680555556,29.9
3.73333333333333,11.8630247171543,23.6167576718284,0.0088299378563526,-0.00136038954041255,5,13.9133680555556,29.9
3.76666666666667,11.8630247171543,23.6167576718284,0.00713932852525395,-0.00169060933109865,5,13.9133680555556,29.9
3.8,11.8630247171543,23.6167576718284,0.00524248750888008,-0.00189684101637387,5,13.9133680555556,29.9
3.83333333333333,11.8630247171543,23.6167576718284,0.00326319471623842,-0.00197929279264166,5,13.9133680555556,29.9
3.86666666666667,11.8630247171543,23.6167576718284,0.00131767890702633,-0.00194551580921209,5,13.9133680555556,29.9
3.9,11.8630247171543,23.6167576718284,0.000491486542969428,-0.000826192364056902,5,13.9133680555556,29.9
3.93333333333333,11.8630247171543,23.6167576718284,0.00208000063319496,0.00158851409022553,5,13.9133680555556,29.9
3.96666666666667,11.8630247171543,23.6167576718284,0.00338484183875676,0.00130484120556181,5,13.9133680555556,29.9
4,11.8630247171543,23.6167576718284,0.00436566069731008,0.000980818858553318,5,13.9133680555556,29.9
4.03333333333333,11.8630247171543,23.6167576718284,0.0050046566894994,0.00063899599218932,5,13.9133680555556,29.9
4.06666666666667,11.8630247171543,23.6167576718284,0.00530512220664755,0.000300465517148149,5,13.9133680555556,29.9
4.1,11.8630247171543,23.6167576718284,0.00528889804044564,-1.62241662019069e-05,5,13.9133680555556,29.9
4.13333333333333,11.8630247171543,23.6167576718284,0.00499302308262577,-0.000295874957819873,5,13.9133680555556,29.9
4.16666666666667,11.8630247171543,23.6167576718284,0.0044658764106186,-0.000527146672007167,5,13.9133680555556,29.9
4.2,11.8630247171543,23.6167576718284,0.00376310466958277,-0.000702771741035836,5,13.9133680555556,29.9
4.23333333333333,11.8630247171543,23.6167576718284,0.00294360471590425,-0.000819499953678513,5,13.9133680555556,29.9
4.26666666666667,11.8630247171543,23.6167576718284,0.00206579465027555,-0.000877810065628702,5,13.9133680555556,29.9
4.3,11.8630247171543,23.6167576718284,0.00118435979745249,-0.000881434852823061,5,13.9133680555556,29.9
4.33333333333333,11.8630247171543,23.6167576718284,0.000347608093614558,-0.000836751703837933,5,13.9133680555556,29.9
4.36666666666667,11.8630247171543,23.6167576718284,0.000404484294981878,5.68762013673199e-05,5,13.9133680555556,29.9
4.4,11.8630247171543,23.6167576718284,0.00104150793921378,0.000637023644231903,5,13.9133680555556,29.9
4.43333333333333,11.8630247171543,23.6167576718284,0.00154315323246314,0.000501645293249356,5,13.9133680555556,29.9
4.46666666666667,11.8630247171543,23.6167576718284,0.00189909869435785,0.00035594546189471,5,13.9133680555556,29.9
4.5,11.8630247171543,23.6167576718284,0.00210834254051898,0.000209243846161128,5,13.9133680555556,29.9
4.53333333333333,11.8630247171543,23.6167576718284,0.00217808715535674,6.97446148377689e-05,5,13.9133680555556,29.9
4.56666666666667,11.8630247171543,23.6167576718284,0.00212229827740915,-5.57888779475942e-05,5,13.9133680555556,29.9
4.6,11.8630247171543,23.6167576718284,0.00196006399040622,-0.000162234287002934,5,13.9133680555556,29.9
4.63333333333333,11.8630247171543,23.6167576718284,0.00171387400837148,-0.000246189982034735,5,13.9133680555556,29.9
4.66666666666667,11.8630247171543,23.6167576718284,0.00140792859380178,-0.000305945414569706,5,13.9133680555556,29.9
4.7,11.8630247171543,23.6167576718284,0.00106657031133386,-0.000341358282467917,5,13.9133680555556,29.9
4.73333333333333,11.8630247171543,23.6167576718284,0.000712912339735842,-0.000353657971598017,5,13.9133680555556,29.9
4.76666666666667,11.8630247171543,23.6167576718284,0.000367715861465641,-0.000345196478270202,5,13.9133680555556,29.9
4.8,11.8630247171543,23.6167576718284,4.85476196887387e-05,-0.000319168241776902,5,13.9133680555556,29.9
4.83333333333333,11.8630247171543,23.6167576718284,0.000230771618896637,0.000182223999207898,5,13.9133680555556,29.9
4.86666666666667,11.8630247171543,23.6167576718284,0.000460435173472966,0.000229663554576329,5,13.9133680555556,29.9
4.9,11.8630247171543,23.6167576718284,0.000634657907980976,0.00017422273450801,5,13.9133680555556,29.9
4.93333333333333,11.8630247171543,23.6167576718284,0.000751457699982734,0.000116799792001758,5,13.9133680555556,29.9
4.96666666666667,11.8630247171543,23.6167576718284,0.000812253821903994,6.079612192126e-05,5,13.9133680555556,29.9
5,11.8630247171543,23.6167576718284,0.000821329759751814,9.07593784781936e-06,5,13.9133680555556,29.9
5.03333333333333,11.8630247171543,23.6167576718284,0.000785209231332738,-3.61205284190754e-05,5,13.9133680555556,29.9
5.06666666666667,11.8630247171543,23.6167576718284,0.000711992417611585,-7.32168137211531e-05,5,13.9133680555556,29.9
5.1,11.8630247171543,23.6167576718284,0.000610695206924609,-0.000101297210686976,5,13.9133680555556,29.9
5.13333333333333,11.8630247171543,23.6167576718284,0.000490628163397792,-0.000120067043526817,5,13.9133680555556,29.9
5.16666666666667,11.8630247171543,23.6167576718284,0.000360844585267793,-0.00012978357813,5,13.9133680555556,29.9
5.2,11.8630247171543,23.6167576718284,0.000229679018789273,-0.00013116556647852,5,13.9133680555556,29.9
5.23333333333333,11.8630247171543,23.6167576718284,0.000104389494200006,-0.000125289524589267,5,13.9133680555556,29.9
5.26666666666667,11.8630247171543,23.6167576718284,9.09096661727507e-06,-9.52985275827305e-05,5,13.9133680555556,29.9
5.3,11.8630247171543,23.6167576718284,0.000106294965273757,9.72039986564824e-05,5,13.9133680555556,29.9
5.33333333333333,11.8630247171543,23.6167576718284,0.000184260741384091,7.79657761103333e-05,5,13.9133680555556,29.9
5.36666666666667,11.8630247171543,23.6167576718284,0.000241483496903921,5.72227555198307e-05,5,13.9133680555556,29.9
5.4,11.8630247171543,23.6167576718284,0.000277793239449929,3.63097425460072e-05,5,13.9133680555556,29.9
5.43333333333333,11.8630247171543,23.6167576718284,0.000294176320012674,1.63830805627449e-05,5,13.9133680555556,29.9
5.46666666666667,11.8630247171543,23.6167576718284,0.000292558553530091,-1.61776648258257e-06,5,13.9133680555556,29.9
5.5,11.8630247171543,23.6167576718284,0.000275567410592043,-1.69911429380475e-05,5,13.9133680555556,29.9
5.53333333333333,11.8630247171543,23.6167576718284,0.000246289438720902,-2.92779718711415e-05,5,13.9133680555556,29.9
5.56666666666667,11.8630247171543,23.6167576718284,0.000208037022475978,-3.8252416244924e-05,5,13.9133680555556,29.9
5.6,11.8630247171543,23.6167576718284,0.000164136043865177,-4.39009786108007e-05,5,13.9133680555556,29.9
5.63333333333333,11.8630247171543,23.6167576718284,0.000117743175258434,-4.63928686067431e-05,5,13.9133680555556,29.9
5.66666666666667,11.8630247171543,23.6167576718284,7.169862750267e-05,-4.60445477557641e-05,5,13.9133680555556,29.9
5.7,11.8630247171543,23.6167576718284,2.84173625625689e-05,-4.32812649401011e-05,5,13.9133680555556,29.9
5.73333333333333,11.8630247171543,23.6167576718284,1.01807923486419e-05,-1.82365702139271e-05,5,13.9133680555556,29.9
5.76666666666667,11.8630247171543,23.6167576718284,4.27039137173404e-05,3.25231213686985e-05,5,13.9133680555556,29.9
5.8,11.8630247171543,23.6167576718284,6.82872153839405e-05,2.55833016666001e-05,5,13.9133680555556,29.9
5.83333333333333,11.8630247171543,23.6167576718284,8.6563662461096e-05,1.82764470771556e-05,5,13.9133680555556,29.9
5.86666666666667,11.8630247171543,23.6167576718284,9.76117452044118e-05,1.10480827433157e-05,5,13.9133680555556,29.9
5.9,11.8630247171543,23.6167576718284,0.000101886607770083,4.27486256567089e-06,5,13.9133680555556,29.9
5.93333333333333,11.8630247171543,23.6167576718284,0.000100140736329784,-1.74587144029853e-06,5,13.9133680555556,29.9
5.96666666666667,11.8630247171543,23.6167576718284,9.33400744813229e-05,-6.80066184846117e-06,5,13.9133680555556,29.9
6,11.8630247171543,23.6167576718284,8.25808215387233e-05,-1.07592529425997e-05,5,13.9133680555556,29.9
6.03333333333333,11.8630247171543,23.6167576718284,6.90113563721161e-05,-1.35694651666072e-05,5,13.9133680555556,29.9
