Time,x_ego,y_ego,velocity,acceleration,action,x_ped,y_ped
0,11.8,8.9,7,0,1,15.5,29.9
0.0333333333333333,11.8,9.13327037939431,6.99615577953002,-0.00384422046998356,1,15.5,29.9
0.0666666666666667,11.8,9.36640659881126,6.99196947109348,-0.00418630843653833,1,15.5,29.9
0.1,11.8,9.59940075527911,6.98769498718995,-0.00427448390352669,1,15.5,29.9
0.133333333333333,11.8,9.83225378528415,6.9834976545359,-0.00419733265404787,1,15.5,29.9
0.166666666666667,11.8,10.0649678802301,6.97935585456763,-0.00414179996826913,1,15.5,29.9
0.2,11.8,10.2975446186632,6.97525409491249,-0.00410175965514537,1,15.5,29.9
0.233333333333333,11.8,10.5299851399444,6.97118127319767,-0.00407282171482137,1,15.5,29.9
0.266666666666667,11.8,10.7622902687052,6.96712943294736,-0.00405184025031069,1,15.5,29.9
0.3,11.8,10.9944606040335,6.96309287213007,-0.00403656081728965,1,15.5,29.9
0.333333333333333,11.8,11.2264965833863,6.95906750439986,-0.00402536773020401,1,15.5,29.9
0.366666666666667,11.8,11.4583985283897,6.95505040137947,-0.00401710302039238,1,15.5,29.9
0.4,11.8,11.6901666776599,6.95103946463339,-0.00401093674607722,1,15.5,29.9
0.433333333333333,11.8,11.9218012103233,6.94703319054231,-0.00400627409108711,1,15.5,29.9
0.466666666666667,11.8,12.1533022628712,6.94303050173604,-0.00400268880626342,1,15.5,29.9
0.5,11.8,12.3846699412377,6.93903062623031,-0.00399987550573222,1,15.5,29.9
0.533333333333333,11.8,12.6159043294559,6.93503301077307,-0.00399761545723631,1,15.5,29.9
0.566666666666667,11.8,12.8470054958598,6.93103725873891,-0.00399575203416092,1,15.5,29.9
0.6,11.8,13.0779734975296,6.92704308564579,-0.003994173093127,1,15.5,29.9
0.633333333333333,11.8,13.3088083834769,6.92305028732138,-0.00399279832440236,1,15.5,29.9
0.666666666666667,11.8,13.539510196927,6.91905871714157,-0.00399157017981544,1,15.5,29.9
0.7,11.8,13.7700789769551,6.91506826976362,-0.00399044737794529,1,15.5,29.9
0.733333333333333,11.8000073894643,14.000514759638,6.91107889686101,-0.0039893729026117,1,15.5,29.9
0.766666666666667,11.800052046012,14.2308175782508,6.90709072647138,-0.00398817038962918,1,15.5,29.9
0.8,11.8001505551186,14.4609874613801,6.90310375084903,-0.0039869756223565,1,15.5,29.9
0.833333333333333,11.800301082427,14.6910244329682,6.89911764071874,-0.00398611013028205,1,15.5,29.9
0.866666666666667,11.8004876800315,14.9209285175713,6.89513207489246,-0.00398556582628462,1,15.5,29.9
0.9,11.8006895509127,15.1506997458524,6.89114705580295,-0.0039850190895061,1,15.5,29.9
0.933333333333333,11.8008870358333,15.3803381554382,6.88716275838279,-0.00398429742016226,1,15.5,29.9
0.966666666666667,11.8010596146562,15.6098437898013,6.88317938962049,-0.00398336876230054,1,15.5,29.9
1,11.8011835463771,15.8392166955774,6.8791972406002,-0.0039821490202927,1,15.5,29.9
1.03333333333333,11.8012338109259,16.0684569154282,6.8752166414902,-0.00398059910999748,1,15.5,29.9
1.06666666666667,11.8011892261651,16.2975644775648,6.87123774347358,-0.00397889801662199,1,15.5,29.9
1.1,11.801036331679,16.5265393889183,6.86726035724479,-0.00397738622879107,1,15.5,29.9
1.13333333333333,11.8007705950087,16.7553816368608,6.86328406245732,-0.00397629478746353,1,15.5,29.9
1.16666666666667,11.8003946111838,16.9840911984871,6.85930836012368,-0.00397570233364508,1,15.5,29.9
1.2,11.7999172177688,17.212668052485,6.85533293677763,-0.00397542334605028,1,15.5,29.9
1.23333333333333,11.7993492375566,17.4411121881359,6.85135766078893,-0.00397527598870351,1,15.5,29.9
1.26666666666667,11.7987035651374,17.66942361066,6.84738258235543,-0.00397507843349043,1,15.5,29.9
1.3,11.7979913928093,17.8976023390334,6.84340793766709,-0.00397464468834041,1,15.5,29.9
1.33333333333333,11.7972214321446,18.1256484009697,6.83943391913689,-0.00397401853020884,1,15.5,29.9
1.36666666666667,11.7964002365435,18.3535618284571,6.83546065690723,-0.00397326222965066,1,15.5,29.9
1.4,11.7955324883755,18.5813426542457,6.83148822950694,-0.00397242740029746,1,15.5,29.9
1.43333333333333,11.7946212125389,18.8089909093605,6.82751668204711,-0.00397154745982498,1,15.5,29.9
1.46666666666667,11.7936679458789,19.0365066215067,6.8235460412566,-0.0039706407905129,1,15.5,29.9
1.5,11.7926736989399,19.2638898165199,6.81957622411618,-0.00396981714041988,1,15.5,29.9
1.53333333333333,11.7916409645646,19.4911405246043,6.81560721724887,-0.0039690068673055,1,15.4972222222222,29.9
1.56666666666667,11.7905707848208,19.7182587725744,6.81163911232574,-0.00396810492313637,1,15.4888888888889,29.9
1.6,11.7894624797681,19.9452445817202,6.80767195960366,-0.00396715272207881,1,15.475,29.9
1.63333333333333,11.7883143651235,20.1720979689837,6.80370577544527,-0.00396618415838912,1,15.4555555555556,29.9
1.66666666666667,11.7871243973179,20.3988189486395,6.79974055259857,-0.00396522284670198,1,15.4305555555556,29.9
1.7,11.7858906617503,20.6254075340062,6.79577626968603,-0.00396428291254036,1,15.4,29.9
1.73333333333333,11.7846116689265,20.8518637388258,6.79181289882007,-0.00396337086596077,1,15.3666666666667,29.9
1.76666666666667,11.7832864667301,21.078187578111,6.78785041148608,-0.00396248733398252,1,15.3333333333333,29.9
1.8,11.7819146082311,21.3043790684299,6.78388878293033,-0.00396162855575355,1,15.3,29.9
1.83333333333333,11.7804960300628,21.5304382277359,6.77992799497978,-0.00396078795054855,1,15.2666666666667,29.9
1.86666666666667,11.7790308971474,21.756365074924,6.77596803711205,-0.0039599578677274,1,15.2333333333333,29.9
1.9,11.7775194589867,21.9821596293093,6.77200890583593,-0.0039591312761198,1,15.2,29.9
1.93333333333333,11.7759619459028,22.2078219101885,6.76805060282955,-0.00395830300638345,1,15.1666666666667,29.9
1.96666666666667,11.7743585156492,22.4333519365774,6.76409313253795,-0.00395747029160542,1,15.1333333333333,29.9
2,11.7727092458388,22.6587497271494,6.76013649992578,-0.00395663261216406,1,15.1,29.9
2.03333333333333,11.7710141580761,22.8840153003391,6.75618070886319,-0.00395579106259536,1,15.0666666666667,29.9
2.06666666666667,11.7692732561897,23.1091486745393,6.752225761329,-0.00395494753418646,1,15.0333333333333,29.9
2.1,11.767486562663,23.3341498683103,6.7482716573644,-0.00395410396459628,1,15,29.9
2.13333333333333,11.7656541424554,23.5590189005306,6.74431839555628,-0.00395326180812461,1,14.9666666666667,29.9
2.16666666666667,11.7637761097837,23.7837557904531,6.7403659737742,-0.00395242178207678,1,14.9333333333333,29.9
2.2,11.7618526192263,24.0083605576576,6.73641438990517,-0.00395158386903383,1,14.9,29.9
2.23333333333333,11.7598838464776,24.2328332219255,6.73246364239887,-0.00395074750629831,1,14.8666666666667,29.9
2.26666666666667,11.7578699657078,24.4571738030784,6.72851373052926,-0.00394991186960691,1,14.8333333333333,29.9
2.3,11.7558111299517,24.6813823208239,6.72456465437135,-0.0039490761579124,1,14.8,29.9
2.33333333333333,11.7537074589103,24.9054587946472,6.72061641456443,-0.00394823980692571,1,14.7666666666667,29.9
2.36666666666667,11.7515590358576,25.1294032437672,6.71666901197084,-0.00394740259358972,1,14.7333333333333,29.9
2.4,11.7493651405314,25.3532156805824,6.71272253641487,-0.00394647555596883,1,14.7,29.9
2.43333333333333,11.7471216875786,25.576896087553,6.70877711720184,-0.00394541921302416,1,14.6666666666667,29.9
2.46666666666667,11.7448217933974,25.8004444188263,6.70483282136041,-0.00394429584142841,1,14.6333333333333,29.9
2.5,11.7424555926901,26.0238605954085,6.70088988875882,-0.00394293260159628,1,14.6,29.9
2.53333333333333,11.7400066722554,26.2471444677475,6.69694857800092,-0.00394131075789783,1,14.5666666666667,29.9
2.56666666666667,11.7374566475376,26.4702958504658,6.69300898912174,-0.00393958887918178,1,14.5333333333333,29.9
2.6,11.7347890118444,26.6933145549541,6.68907089211597,-0.00393809700577208,1,14.5,29.9
2.63333333333333,11.7319957862147,26.9162004572279,6.68513360428766,-0.00393728782830127,1,14.4666666666667,29.9
2.66666666666667,11.7290782331718,27.1389535180202,6.68119658985328,-0.00393701443438577,1,14.4333333333333,29.9
2.7,11.7260419503363,27.3615737463651,6.6772595048411,-0.00393708501218359,1,14.4,29.9
2.73333333333333,11.7228961564698,27.5840612023362,6.67332228315252,-0.00393722168858002,1,14.3666666666667,29.9
2.76666666666667,11.7196494081321,27.8064159549817,6.66938519315049,-0.00393709000202236,1,14.3333333333333,29.9
2.8,11.716308499895,28.0286380677963,6.66544849976256,-0.00393669338793767,1,14.3,29.9
2.83333333333333,11.7128786819913,28.2507275970981,6.66151240716259,-0.00393609259996897,1,14.2666666666667,29.9
2.86666666666667,11.7093639813393,28.4726845918161,6.65757704677329,-0.00393536038930087,1,14.2333333333333,29.9
2.9,11.7057674708343,28.6945090934335,6.65364249085712,-0.00393455591616831,1,14.2,29.9
2.93333333333333,11.7020914279985,28.9162011354115,6.64970877458933,-0.00393371626778993,1,14.1666666666667,29.9
2.96666666666667,11.6983373960178,29.1377607420758,6.64577591595823,-0.0039328586310976,1,14.1333333333333,29.9
3,11.6945061986224,29.3591879274341,6.64184392871182,-0.0039319872464052,1,14.1,29.9
3.03333333333333,11.690597966717,29.5804826945683,6.63791282769512,-0.00393110101669958,1,14.0666666666667,29.9
3.06666666666667,11.6866122179964,29.8016450361155,6.63398262835699,-0.00393019933813132,1,14.0333333333333,29.9
3.1,11.6825480030599,30.0226749360331,6.6300533431986,-0.00392928515839319,1,14,29.9
3.13333333333333,11.6784049073436,30.2435723855922,6.62612480433725,-0.00392853886134592,1,13.9666666666667,29.9
3.16666666666667,11.6741851056722,30.4643374190003,6.62219695019915,-0.00392785413810604,1,13.9333333333333,29.9
3.2,11.669891023561,30.6849700783273,6.61826974875196,-0.00392720144718606,1,13.9,29.9
3.23333333333333,11.6655273804152,30.9054704494913,6.61434306100142,-0.00392668775054617,1,13.8666666666667,29.9
3.26666666666667,11.6611010905825,31.1258386641709,6.61041685450564,-0.00392620649577236,1,13.8333333333333,29.9
3.3,11.6566202345792,31.34607488417,6.60649116893519,-0.00392568557045259,1,13.8,29.9
3.33333333333333,11.6520934274824,31.566179290569,6.60256608755392,-0.00392508138126857,1,13.7666666666667,29.9
3.36666666666667,11.6475292217613,31.7861520720071,6.59864170772107,-0.00392437983285543,1,13.7333333333333,29.9
3.4,11.6429358618615,32.0059934185102,6.59471812472116,-0.00392358299991091,1,13.7,29.9
3.43333333333333,11.6383202048051,32.2257034989125,6.59079553315482,-0.00392259156633212,1,13.6666666666667,29.9
3.46666666666667,11.6336859313723,32.4452824231572,6.58687399589617,-0.00392153725865807,1,13.6333333333333,29.9
3.5,11.629037582391,32.6647303180798,6.5829533453061,-0.00392065059006441,1,13.6,29.9
3.53333333333333,11.6243860248601,32.8840474373093,6.57903322256407,-0.00392012274203601,1,13.5666666666667,29.9
3.56666666666667,11.6197529039528,33.1032342557116,6.5751137250324,-0.00391949753166188,1,13.5333333333333,29.9
3.6,11.6151605921776,33.3222912707892,6.57119529924349,-0.00391842578891488,1,13.5,29.9
3.63333333333333,11.6106298954609,33.5412189502642,6.56727837388284,-0.00391692536065058,1,13.4666666666667,29.9
3.66666666666667,11.6061747698268,33.7600176172848,6.56336313890114,-0.0039152349816991,1,13.4333333333333,29.9
3.7,11.6018022065555,33.9786874424614,6.55944945571275,-0.00391368318838659,1,13.4,29.9
3.73333333333333,11.5975118840144,34.197228436718,6.55553697975772,-0.00391247595503597,1,13.3666666666667,29.9
3.76666666666667,11.5932986009668,34.4156405050873,6.55162536758256,-0.00391161217515634,1,13.3333333333333,29.9
3.8,11.5891547941167,34.6339235034478,6.54771440035029,-0.00391096723227413,1,13.3,29.9
3.83333333333333,11.5850714077041,34.8520772608868,6.54380392225144,-0.0039104780988497,1,13.2666666666667,29.9
3.86666666666667,11.5810370421423,35.0701015664722,6.53989390847679,-0.00391001377464484,1,13.2333333333333,29.9
3.9,11.577040911245,35.2879962291659,6.53598440393169,-0.00390950454509742,1,13.2,29.9
3.93333333333333,11.5730718905533,35.5057610586071,6.53207550445199,-0.00390889947970496,1,13.1666666666667,29.9
3.96666666666667,11.5691207594856,35.7233959068788,6.52816730165538,-0.00390820279661064,1,13.1333333333333,29.9
4,11.5651780465693,35.9409006250752,6.52425982981371,-0.00390747184166607,1,13.1,29.9
4.03333333333333,11.5612331649652,36.1582750459338,6.52035310906682,-0.00390672074689036,1,13.0666666666667,29.9
4.06666666666667,11.5572718373696,36.3755189347941,6.51644717311723,-0.0039059359495921,1,13.0333333333333,29.9
4.1,11.5532737706325,36.5926319455396,6.51254219603015,-0.00390497708708271,1,13,29.9
4.13333333333333,11.549213242038,36.8096136292036,6.50863858921446,-0.00390360681568591,1,12.9666666666667,29.9
4.16666666666667,11.5450637417709,37.0264635145343,6.50473686505887,-0.0039017241555932,1,12.9333333333333,29.9
4.2,11.540799578545,37.2431811288074,6.50083737332852,-0.00389949173035031,1,12.9,29.9
4.23333333333333,11.5364051056569,37.4597661639826,6.49693984251758,-0.0038975308109368,1,12.8666666666667,29.9
4.26666666666667,11.5318765817452,37.6762185144648,6.49304354265078,-0.00389629986680262,1,12.8333333333333,29.9
4.3,11.5272191711346,37.8925382323362,6.48914760751645,-0.00389593513433351,1,12.8,29.9
4.33333333333333,11.5224449862614,38.1087255063841,6.4852514830894,-0.0038961244270439,1,12.7666666666667,29.9
4.36666666666667,11.5175672069096,38.3247805603675,6.48135512773922,-0.00389635535017874,1,12.7333333333333,29.9
4.4,11.5125977942428,38.5407036121389,6.47745872029085,-0.00389640744837383,1,12.7,29.9
4.43333333333333,11.5075469651396,38.756494861866,6.47356250961585,-0.00389621067499668,1,12.6666666666667,29.9
4.46666666666667,11.502423134397,38.972154486964,6.46966672263439,-0.00389578698146664,1,12.6333333333333,29.9
4.5,11.4972330418379,39.1876826400508,6.46577152956428,-0.00389519307010389,1,12.6,29.9
4.53333333333333,11.4919818936339,39.403079447561,6.46187704514449,-0.0038944844197939,1,12.5666666666667,29.9
