Time,x_ego,y_ego,velocity,acceleration,action,x_ped,y_ped
0,11.8,15.9,5,0,1,15.5,29.9
0.0333333333333333,11.7999885369998,16.0666076887975,4.99642270935089,-0.00357729064910917,1,15.4502170138889,29.9
0.0666666666666667,11.799914998541,16.2330926511075,4.99264871379741,-0.00377399555348568,1,15.4008680555556,29.9
0.1,11.7997356533176,16.3994492779807,4.98873555758597,-0.00391315621143207,1,15.351953125,29.9
0.133333333333333,11.79942530525,16.5656735369519,4.98472390537888,-0.00401165220709299,1,15.3034722222222,29.9
0.166666666666667,11.7989740890576,16.7317625149413,4.98064198895868,-0.00408191642020395,1,15.2554253472222,29.9
0.2,11.7983835372505,16.8977141013489,4.97650936430028,-0.00413262465839992,1,15.2078125,29.9
0.233333333333333,11.7976627409464,17.0635267704213,4.9723397911627,-0.00416957313758104,1,15.1606336805556,29.9
0.266666666666667,11.7968250959858,17.2291994299829,4.96814321897632,-0.00419657218637148,1,15.1138888888889,29.9
0.3,11.7958858233412,17.3947313127077,4.96392703944191,-0.00421617953440911,1,15.067578125,29.9
0.333333333333333,11.7948602312196,17.5601218945286,4.95969683918259,-0.00423020025932264,1,15.0217013888889,29.9
0.366666666666667,11.7937625654655,17.7253708312027,4.9554568612667,-0.00423997791589326,1,14.9762586805556,29.9
0.4,11.792605266271,17.8904779081279,4.9512103154132,-0.00424654585349504,1,14.93125,29.9
0.433333333333333,11.7913990666723,18.0554430028306,4.94695942324287,-0.00425089217033126,1,14.8866753472222,29.9
0.466666666666667,11.7901547072836,18.2202660633381,4.94270572039192,-0.00425370285095727,1,14.8425347222222,29.9
0.5,11.7888819385876,18.3849470855756,4.93845062273103,-0.00425509766088972,1,14.798828125,29.9
0.533333333333333,11.7875871171903,18.5494860875188,4.93419519062645,-0.00425543210457668,1,14.7555555555556,29.9
0.566666666666667,11.7862750366452,18.7138827409032,4.92991827327032,-0.00427691735612434,1,14.7127170138889,29.9
0.6,11.7849507532552,18.8777330802375,4.90142386886691,-0.0284944044034185,3,14.6703125,29.9
0.633333333333333,11.7836172570829,19.0403741614211,4.85737034564373,-0.044053523223174,3,14.6283420138889,29.9
0.666666666666667,11.7822755632819,19.2011718614495,4.79082968913115,-0.0665406565125854,3,14.5868055555556,29.9
0.7,11.7809278851327,19.359463521735,4.70701733924543,-0.0838123498857133,3,14.545703125,29.9
0.733333333333333,11.7795753046488,19.5147596008454,4.61110520301744,-0.0959121362279971,3,14.5050347222222,29.9
0.766666666666667,11.7782175718879,19.6668010672054,4.51175238810747,-0.0993528149099623,3,14.4648003472222,29.9
0.8,11.7768541783511,19.8154736238025,4.40898412326111,-0.102768264846368,3,14.425,29.9
0.833333333333333,11.7754851698187,19.9607208460595,4.30624729787268,-0.102736825388425,3,14.3856336805556,29.9
0.866666666666667,11.7741116005011,20.1024860243861,4.20007744035473,-0.106169857517947,3,14.3467013888889,29.9
0.9,11.7727363190732,20.2406547502105,4.09047582964251,-0.109601610712224,3,14.308203125,29.9
0.933333333333333,11.7713648056445,20.375083985374,3.97572142792031,-0.114754401722203,3,14.2701388888889,29.9
0.966666666666667,11.7700034785659,20.5056020505367,3.85581545258161,-0.119905975338696,3,14.2325086805556,29.9
1,11.7686606614545,20.6320086344971,3.72903703370335,-0.12677841887826,3,14.1953125,29.9
1.03333333333333,11.7673452497341,20.7541899663516,3.60229808366519,-0.126738950038158,3,14.1585503472222,29.9
1.06666666666667,11.7660657554018,20.8720897276672,3.47213366927733,-0.130164414387864,3,14.1222222222222,29.9
1.1,11.7648289759415,20.9856516242953,3.34201119021369,-0.130122479063637,3,14.086328125,29.9
1.13333333333333,11.7636407411124,21.0948771528357,3.21193152286663,-0.130079667347058,3,14.0508680555556,29.9
1.16666666666667,11.7625062078754,21.1997678200504,3.08189547337788,-0.130036049488754,3,14.0158420138889,29.9
1.2,11.761427910361,21.300353821545,2.95362584043743,-0.128269632940445,3,13.98125,29.9
1.23333333333333,11.7604062259233,21.3966366278133,2.82367857050771,-0.129947269929723,3,13.9470920138889,29.9
1.26666666666667,11.7594398688713,21.4885889877316,2.69377608365545,-0.129902486852258,3,13.9133680555556,29.9
1.3,11.7585264233193,21.5761545700757,2.56045226628618,-0.133323817369272,3,13.9133680555556,29.9
1.33333333333333,11.7576631315798,21.659219271866,2.42370726108889,-0.136745005197294,3,13.9133680555556,29.9
1.36666666666667,11.7568472058016,21.7376402965306,2.28181907526281,-0.141888185826078,3,13.9133680555556,29.9
1.4,11.7560759018261,21.8113048314198,2.13838578770036,-0.143433287562452,3,13.9133680555556,29.9
1.43333333333333,11.7553465031913,21.8801779433658,1.99459331770428,-0.143792469996078,3,13.9133680555556,29.9
1.46666666666667,11.7546565942171,21.9442971947664,1.85323487826568,-0.141358439438598,3,13.9133680555556,29.9
1.5,11.7540043465631,22.0037495530745,1.71458832617186,-0.138646552093824,3,13.9133680555556,29.9
1.53333333333333,11.7533888926212,22.0586259237284,1.57866236894885,-0.135925957223012,3,13.9133680555556,29.9
1.56666666666667,11.7528103462474,22.1090167892173,1.44544543171011,-0.133216937238735,3,13.9133680555556,29.9
1.6,11.7522699014013,22.1550118893767,1.31490141806659,-0.130544013643521,3,13.9133680555556,29.9
1.63333333333333,11.7517692393929,22.1966998197572,1.18699240825401,-0.127909009812585,3,13.9133680555556,29.9
1.66666666666667,11.7513104769481,22.2341674172785,1.06166527396441,-0.1253271342896,3,13.9133680555556,29.9
1.7,11.7508959169166,22.2675014567876,0.938986080520383,-0.122679193444022,3,13.9133680555556,29.9
1.73333333333333,11.750527849105,22.2967923938713,0.819072013839466,-0.119914066680917,3,13.9133680555556,29.9
1.76666666666667,11.7502081891923,22.3221318142855,0.701850312061003,-0.117221701778463,3,13.9133680555556,29.9
1.8,11.7499384099572,22.3436071728974,0.58719843848742,-0.114651873573583,3,13.9133680555556,29.9
1.83333333333333,11.7497193083414,22.3613040622925,0.475131723566247,-0.112066714921173,3,13.9133680555556,29.9
1.86666666666667,11.7495510728921,22.3753093973301,0.365683203272947,-0.1094485202933,3,13.9133680555556,29.9
1.9,11.7494334010925,22.3857096739532,0.25879148510483,-0.106891718168117,3,13.9133680555556,29.9
1.93333333333333,11.7493656256483,22.3925885579925,0.154377298389004,-0.104414186715826,3,13.9133680555556,29.9
1.96666666666667,11.7493468441687,22.396030075151,0.0525785255729079,-0.101798772816096,3,13.9133680555556,29.9
2,11.7493727200005,22.3964568111547,0.00165562858706225,-0.0509228969858457,3,13.9133680555556,29.9
2.03333333333333,11.7494176855838,22.3964440437215,0.00181695446758245,0.000161325880520194,5,13.9133680555556,29.9
2.06666666666667,11.7494176855838,22.3964440437215,0.00284257326906519,0.00102561880148275,5,13.9133680555556,29.9
2.1,11.7494176855838,22.3964440437215,0.0041599932685951,0.00131741999952991,5,13.9133680555556,29.9
2.13333333333333,11.7494176855838,22.3964440437215,0.00565439022872881,0.00149439696013371,5,13.9133680555556,29.9
2.16666666666667,11.7494176855838,22.3964440437215,0.00718272831007388,0.00152833808134507,5,13.9133680555556,29.9
2.2,11.7494176855838,22.3964440437215,0.00859383863258084,0.00141111032250697,5,13.9133680555556,29.9
2.23333333333333,11.7494176855838,22.3964440437215,0.00974624638040536,0.00115240774782452,5,13.9133680555556,29.9
2.26666666666667,11.7494176855838,22.3964440437215,0.01052255465558,0.00077630827517464,5,13.9133680555556,29.9
2.3,11.7494176855838,22.3964440437215,0.0108396683511152,0.000317113695535191,5,13.9133680555556,29.9
2.33333333333333,11.7494176855838,22.3964440437215,0.0106545931787512,-0.000185075172363963,5,13.9133680555556,29.9
2.36666666666667,11.7494176855838,22.3964440437215,0.00996594378154426,-0.000688649397206972,5,13.9133680555556,29.9
2.4,11.7494176855838,22.3964440437215,0.0088116195555818,-0.00115432422596246,5,13.9133680555556,29.9
2.43333333333333,11.7494176855838,22.3964440437215,0.00726334522366871,-0.00154827433191309,5,13.9133680555556,29.9
2.46666666666667,11.7494176855838,22.3964440437215,0.00541892142512426,-0.00184442379854445,5,13.9133680555556,29.9
2.5,11.7494176855838,22.3964440437215,0.0033930918612777,-0.00202582956384656,5,13.9133680555556,29.9
2.53333333333333,11.7494176855838,22.3964440437215,0.0013079168876451,-0.00208517497363259,5,13.9133680555556,29.9
2.56666666666667,11.7494176855838,22.3964440437215,0.000716537911859593,-0.000591378975785511,5,13.9133680555556,29.9
2.6,11.7494176855838,22.3964440437215,0.0025705198944686,0.00185398198260901,5,13.9133680555556,29.9
2.63333333333333,11.7494176855838,22.3964440437215,0.00416139830786126,0.00159087841339266,5,13.9133680555556,29.9
2.66666666666667,11.7494176855838,22.3964440437215,0.00541862585955403,0.00125722755169277,5,13.9133680555556,29.9
2.7,11.7494176855838,22.3964440437215,0.00629669290987586,0.000878067050321826,5,13.9133680555556,29.9
2.73333333333333,11.7494176855838,22.3964440437215,0.00677607994010422,0.00047938703022836,5,13.9133680555556,29.9
2.76666666666667,11.7494176855838,22.3964440437215,0.00686235701972406,8.62770796198446e-05,5,13.9133680555556,29.9
2.8,11.7494176855838,22.3964440437215,0.00658369251694746,-0.000278664502776601,5,13.9133680555556,29.9
2.83333333333333,11.7494176855838,22.3964440437215,0.00598711338798546,-0.000596579128962,5,13.9133680555556,29.9
2.86666666666667,11.7494176855838,22.3964440437215,0.00513390506655506,-0.000853208321430399,5,13.9133680555556,29.9
2.9,11.7494176855838,22.3964440437215,0.0040945518113265,-0.00103935325522856,5,13.9133680555556,29.9
2.93333333333333,11.7494176855838,22.3964440437215,0.00294360195850837,-0.00115094985281813,5,13.9133680555556,29.9
2.96666666666667,11.7494176855838,22.3964440437215,0.00175480196963747,-0.0011887999888709,5,13.9133680555556,29.9
3,11.7494176855838,22.3964440437215,0.000596784489408669,-0.0011580174802288,5,13.9133680555556,29.9
3.03333333333333,11.7494176855838,22.3964440437215,0.000470474753759405,-0.000126309735649264,5,13.9133680555556,29.9
3.06666666666667,11.7494176855838,22.3964440437215,0.00139829215655019,0.000927817402790787,5,13.9133680555556,29.9
3.1,11.7494176855838,22.3964440437215,0.00215093991061577,0.000752647754065578,5,13.9133680555556,29.9
3.13333333333333,11.7494176855838,22.3964440437215,0.00270634454138085,0.000555404630765082,5,13.9133680555556,29.9
3.16666666666667,11.7494176855838,22.3964440437215,0.00305588752052927,0.000349542979148414,5,13.9133680555556,29.9
3.2,11.7494176855838,22.3964440437215,0.00320342393132732,0.000147536410798053,5,13.9133680555556,29.9
3.23333333333333,11.7494176855838,22.3964440437215,0.00316367032636751,-3.9753604959808e-05,5,13.9133680555556,29.9
3.26666666666667,11.7494176855838,22.3964440437215,0.00296013398204138,-0.000203536344326127,5,13.9133680555556,29.9
3.3,11.7494176855838,22.3964440437215,0.00262276322544518,-0.000337370756596204,5,13.9133680555556,29.9
3.33333333333333,11.7494176855838,22.3964440437215,0.00218549370201062,-0.000437269523434559,5,13.9133680555556,29.9
3.36666666666667,11.7494176855838,22.3964440437215,0.00168385029258049,-0.00050164340943013,5,13.9133680555556,29.9
3.4,11.7494176855838,22.3964440437215,0.00115274120478994,-0.000531109087790552,5,13.9133680555556,29.9
3.43333333333333,11.7494176855838,22.3964440437215,0.000624552078153176,-0.000528189126636763,5,13.9133680555556,29.9
3.46666666666667,11.7494176855838,22.3964440437215,0.000127616283457277,-0.000496935794695899,5,13.9133680555556,29.9
3.5,11.7494176855838,22.3964440437215,0.000314894663556668,0.000187278380099391,5,13.9133680555556,29.9
3.53333333333333,11.7494176855838,22.3964440437215,0.000685647430869795,0.000370752767313127,5,13.9133680555556,29.9
3.56666666666667,11.7494176855838,22.3964440437215,0.000973404382537253,0.000287756951667458,5,13.9133680555556,29.9
3.6,11.7494176855838,22.3964440437215,0.00117289983356178,0.000199495451024524,5,13.9133680555556,29.9
3.63333333333333,11.7494176855838,22.3964440437215,0.00128439043366409,0.00011149060010231,5,13.9133680555556,29.9
3.66666666666667,11.7494176855838,22.3964440437215,0.00131294722152566,2.85567878615736e-05,5,13.9133680555556,29.9
3.7,11.7494176855838,22.3964440437215,0.00126756339427742,-4.53838272482456e-05,5,13.9133680555556,29.9
3.73333333333333,11.7494176855838,22.3964440437215,0.00116015305346063,-0.00010741034081679,5,13.9133680555556,29.9
3.76666666666667,11.7494176855838,22.3964440437215,0.00100451275754262,-0.000155640295918009,5,13.9133680555556,29.9
3.8,11.7494176855838,22.3964440437215,0.00081531046742033,-0.000189202290122286,5,13.9133680555556,29.9
3.83333333333333,11.7494176855838,22.3964440437215,0.000607156367256639,-0.000208154100163692,5,13.9133680555556,29.9
3.86666666666667,11.7494176855838,22.3964440437215,0.000393798072608052,-0.000213358294648587,5,13.9133680555556,29.9
3.9,11.7494176855838,22.3964440437215,0.000187469870568196,-0.000206328202039857,5,13.9133680555556,29.9
3.93333333333333,11.7494176855838,22.3964440437215,1.58723833921986e-06,-0.000185882632228976,5,13.9133680555556,29.9
3.96666666666667,11.7494176855838,22.3964440437215,0.000165430043538567,0.000163842805199347,5,13.9133680555556,29.9
4,11.7494176855838,22.3964440437215,0.00029854826475706,0.000133118221218493,5,13.9133680555556,29.9
4.03333333333333,11.7494176855838,22.3964440437215,0.000397845347589745,9.92970828326852e-05,5,13.9133680555556,29.9
4.06666666666667,11.7494176855838,22.3964440437215,0.000462486765662785,6.46414180730396e-05,5,13.9133680555556,29.9
4.1,11.7494176855838,22.3964440437215,0.000493642308506821,3.1155542844036e-05,5,13.9133680555556,29.9
4.13333333333333,11.7494176855838,22.3964440437215,0.000494151291162076,5.0898265525521e-07,5,13.9133680555556,29.9
4.16666666666667,11.7494176855838,22.3964440437215,0.000468140065949224,-2.60112252128522e-05,5,13.9133680555556,29.9
4.2,11.7494176855838,22.3964440437215,0.000420619903658132,-4.75201622910913e-05,5,13.9133680555556,29.9
4.23333333333333,11.7494176855838,22.3964440437215,0.000357090563120732,-6.35293405374001e-05,5,13.9133680555556,29.9
4.26666666666667,11.7494176855838,22.3964440437215,0.000283171045969135,-7.39195171515968e-05,5,13.9133680555556,29.9
4.3,11.7494176855838,22.3964440437215,0.000204274510310033,-7.88965356591022e-05,5,13.9133680555556,29.9
4.33333333333333,11.7494176855838,22.3964440437215,0.00012533945403095,-7.89350562790834e-05,5,13.9133680555556,29.9
4.36666666666667,11.7494176855838,22.3964440437215,5.06244048497716e-05,-7.47150491811783e-05,5,13.9133680555556,29.9
4.4,11.7494176855838,22.3964440437215,1.64312470724178e-05,-3.41931577773538e-05,5,13.9133680555556,29.9
4.43333333333333,11.7494176855838,22.3964440437215,7.32817405925031e-05,5.68504935200853e-05,5,13.9133680555556,29.9
4.46666666666667,11.7494176855838,22.3964440437215,0.000118289664372659,4.50079237801557e-05,5,13.9133680555556,29.9
4.5,11.7494176855838,22.3964440437215,0.000150688484265654,3.23988198929952e-05,5,13.9133680555556,29.9
4.53333333333333,11.7494176855838,22.3964440437215,0.000170502316456724,1.98138321910696e-05,5,13.9133680555556,29.9
4.56666666666667,11.7494176855838,22.3964440437215,0.000178433446868976,7.93113041225226e-06,5,13.9133680555556,29.9
4.6,11.7494176855838,22.3964440437215,0.000175728412564261,-2.70503430471508e-06,5,13.9133680555556,29.9
4.63333333333333,11.7494176855838,22.3964440437215,0.000164033119490768,-1.16952930734928e-05,5,13.9133680555556,29.9
4.66666666666667,11.7494176855838,22.3964440437215,0.000145246587223552,-1.8786532267216e-05,5,13.9133680555556,29.9
4.7,11.7494176855838,22.3964440437215,0.000121381614100549,-2.38649731230027e-05,5,13.9133680555556,29.9
4.73333333333333,11.7494176855838,22.3964440437215,9.44390790789742e-05,-2.69425350215749e-05,5,13.9133680555556,29.9
4.76666666666667,11.7494176855838,22.3964440437215,6.63008698982383e-05,-2.8138209180736e-05,5,13.9133680555556,29.9
4.8,11.7494176855838,22.3964440437215,3.86446703883698e-05,-2.76561995098685e-05,5,13.9133680555556,29.9
4.83333333333333,11.7494176855838,22.3964440437215,1.28821568026625e-05,-2.57625135857073e-05,5,13.9133680555556,29.9
4.86666666666667,11.7494176855838,22.3964440437215,0.000108491801201526,9.56096443988639e-05,5,13.9133680555556,29.9
4.9,11.7494107659703,22.3971462470419,0.040699690196669,0.0405911983954675,4,13.9133680555556,29.9
4.93333333333333,11.7493889996441,22.3993552197853,0.0917585598364675,0.0510588696397984,4,13.9133680555556,29.9
4.96666666666667,11.7493505922239,22.4032548892887,0.142102265214652,0.0503437053781849,4,13.9133680555556,29.9
5,11.749295870813,22.4088168910464,0.191477531688161,0.049375266473509,4,13.9133680555556,29.9
5.03333333333333,11.7492252730885,22.4160058465327,0.239712114434667,0.0482345827465054,4,13.9133680555556,29.9
5.06666666666667,11.7491393288525,22.4247822918089,0.286747319434339,0.0470352049996725,4,13.9133680555556,29.9
5.1,11.7490386236907,22.4351071524829,0.332639834868937,0.0458925154345973,4,13.9133680555556,29.9
5.13333333333333,11.748923788089,22.4469433257616,0.377442701110429,0.0448028662414927,4,13.9133680555556,29.9
5.16666666666667,11.7487955023682,22.460255313509,0.421198697597904,0.0437559964874745,4,13.9133680555556,29.9
5.2,11.7486544973639,22.4750089139507,0.463943076089547,0.0427443784916435,4,13.9133680555556,29.9
5.23333333333333,11.7485015519176,22.4911708470954,0.505692525904012,0.0417494498144652,4,13.9133680555556,29.9
5.26666666666667,11.7483374910519,22.508707921503,0.546442801977342,0.0407502760733294,4,13.9133680555556,29.9
5.3,11.7481631740414,22.5275868571861,0.586196143581437,0.0397533416040947,4,13.9133680555556,29.9
5.33333333333333,11.747979475141,22.547774531039,0.624961142294762,0.0387649987133257,4,13.9133680555556,29.9
5.36666666666667,11.7477872624545,22.5692381611038,0.662750693403919,0.0377895511091566,4,13.9133680555556,29.9
5.4,11.7475873757113,22.5919454454242,0.699582754778511,0.0368320613745922,4,13.9133680555556,29.9
5.43333333333333,11.7473805992242,22.6158651464459,0.735508020622327,0.0359252658438159,4,13.9133680555556,29.9
5.46666666666667,11.7471676315892,22.6409680892304,0.770590005578608,0.0350819849562808,4,13.9133680555556,29.9
5.5,11.746949068503,22.6672270311939,0.804880105599997,0.0342901000213889,4,13.9133680555556,29.9
5.53333333333333,11.7467253910667,22.6946162942877,0.83842014840358,0.0335400428035835,4,13.9133680555556,29.9
5.56666666666667,11.7464969573467,22.723111487688,0.871244929470344,0.0328247810667639,4,13.9133680555556,29.9
5.6,11.7462639982093,22.7526893001717,0.903384057993076,0.0321391285227322,4,13.9133680555556,29.9
5.63333333333333,11.746026619231,22.7833272354076,0.934850633596931,0.0314665756038551,4,13.9133680555556,29.9
5.66666666666667,11.7457848170543,22.8150024479748,0.965613964658936,0.0307633310620044,4,13.9133680555556,29.9
5.7,11.7455384967493,22.8476910575683,0.995649570640162,0.0300356059812263,4,13.9133680555556,29.9
5.73333333333333,11.7452874834258,22.8813686137451,1.02494700039105,0.0292974297508888,4,13.9133680555556,29.9
5.76666666666667,11.7450315396662,22.9160104509508,1.05350409472379,0.0285570943327358,4,13.9133680555556,29.9
5.8,11.7447703875949,22.9515919586503,1.08132663228537,0.0278225375615822,4,13.9133680555556,29.9
5.83333333333333,11.7445037338644,22.9880888183907,1.10842627858988,0.0270996463045139,4,13.9133680555556,29.9
5.86666666666667,11.7442312965005,23.0254771687684,1.13481855381657,0.0263922752266887,4,13.9133680555556,29.9
5.9,11.7439528310333,23.0637338052657,1.16053120801912,0.025712654202545,4,13.9133680555556,29.9
5.93333333333333,11.7436681504849,23.1028368278953,1.1856103654711,0.0250791574519842,4,13.9133680555556,29.9
5.96666666666667,11.7433771463995,23.1427658043363,1.21009629693666,0.0244859314655632,4,13.9133680555556,29.9
6,11.7430798086002,23.1835015378118,1.2340228835628,0.0239265866261356,4,13.9133680555556,29.9
6.03333333333333,11.7427762383531,23.2250258796231,1.25741911458704,0.0233962310242377,4,13.9133680555556,29.9
6.06666666666667,11.7424666541087,23.2673215843848,1.28031019679957,0.0228910822125294,4,13.9133680555556,29.9
