Time,x_ego,y_ego,velocity,acceleration,action,x_ped,y_ped
0,11.8,15.9,7,0,1,15.5,29.9
0.0333333333333333,11.8000000422184,16.1332703793943,6.9961557795309,-0.00384422046910426,1,15.4972222222222,29.9
0.0666666666666667,11.8000002641823,16.3664065988112,6.99196947109823,-0.00418630843266321,1,15.4888888888889,29.9
0.1,11.8000006292235,16.599400755279,6.98769498719695,-0.00427448390128671,1,15.475,29.9
0.133333333333333,11.8000010685536,16.8322537852839,6.98349765454256,-0.00419733265438538,1,15.4555555555556,29.9
0.166666666666667,11.8000015338958,17.0649678802295,6.97935585457254,-0.00414179997002417,1,15.4305555555556,29.9
0.2,11.8000019953763,17.2975446186623,6.97525409491548,-0.00410175965706028,1,15.4,29.9
0.233333333333333,11.8000024372321,17.5299851399432,6.97118127319922,-0.00407282171625756,1,15.3666666666667,29.9
0.266666666666667,11.8000028530444,17.7622902687036,6.96712943294805,-0.00405184025116867,1,15.3333333333333,29.9
0.3,11.8000032416377,17.9944606040316,6.96309287213033,-0.00403656081771953,1,15.3,29.9
0.333333333333333,11.8000036042021,18.2264965833841,6.95906750439994,-0.00402536773038698,1,15.2666666666667,29.9
0.366666666666667,11.8000039426989,18.4583985283873,6.95505040137949,-0.00401710302045721,1,15.2333333333333,29.9
0.4,11.8000042592867,18.6901666776573,6.95103946463339,-0.00401093674609143,1,15.2,29.9
0.433333333333333,11.8000045563572,18.9218012103205,6.94703319054231,-0.00400627409108267,1,15.1666666666667,29.9
0.466666666666667,11.8000048367784,19.1533022628682,6.94303050173606,-0.00400268880625276,1,15.1333333333333,29.9
0.5,11.8000051040472,19.3846699412346,6.93903062623034,-0.00399987550572067,1,15.1,29.9
0.533333333333333,11.8000053622093,19.6159043294526,6.93503301077311,-0.00399761545722921,1,15.0666666666667,29.9
0.566666666666667,11.8000056155392,19.8470054958564,6.93103725873895,-0.00399575203415914,1,15.0333333333333,29.9
0.6,11.8000058680765,20.0779734975261,6.92704308564582,-0.00399417309313232,1,15,29.9
0.633333333333333,11.8000061231538,20.3088083834732,6.9230502873214,-0.00399279832441302,1,14.9666666666667,29.9
0.666666666666667,11.8000063830443,20.5395101969232,6.91905871714158,-0.0039915701798261,1,14.9333333333333,29.9
0.7,11.8000066488085,20.7700789769511,6.91506826976363,-0.00399044737795151,1,14.9,29.9
0.733333333333333,11.8000069203609,21.0005147596539,6.91107886949752,-0.00398940026610273,1,14.8666666666667,29.9
0.766666666666667,11.8000071967214,21.2308175789905,6.90709046198042,-0.00398840751710594,1,14.8333333333333,29.9
0.8,11.8000074763756,21.4609874673835,6.90310300819923,-0.00398745378118814,1,14.8,29.9
0.833333333333333,11.8000077576588,21.6910244561508,6.89911648018273,-0.00398652801649835,1,14.7666666666667,29.9
0.866666666666667,11.8000080390837,21.9209285758146,6.89513085788465,-0.0039856222980772,1,14.7333333333333,29.9
0.9,11.8000083195609,22.150699856323,6.89114612692274,-0.00398473096191232,1,14.7,29.9
0.933333333333333,11.8000077661676,22.3803383272094,6.88716227728693,-0.00398384963580956,1,14.6666666666667,29.9
0.966666666666667,11.8000012064705,22.6098440176954,6.88317931013553,-0.00398296715140312,1,14.6333333333333,29.9
1,11.7999772629602,22.8392169565793,6.8791972662771,-0.00398204385843393,1,14.6,29.9
1.03333333333333,11.7999212205304,23.0684571714517,6.87521622870519,-0.00398103757190604,1,14.5666666666667,29.9
1.06666666666667,11.7998191599917,23.2975646870744,6.87123629876861,-0.00397992993658303,1,14.5333333333333,29.9
1.1,11.7996568344544,23.5265395230595,6.86725756313828,-0.00397873563032469,1,14.5,29.9
1.13333333333333,11.7994233225192,23.7553816921421,6.86327996866313,-0.00397759447515433,1,14.4666666666667,29.9
1.16666666666667,11.7991138987354,23.9840912010713,6.85930333526907,-0.00397663339405785,1,14.4333333333333,29.9
1.2,11.7987285519727,24.2126680534977,6.85532748035721,-0.00397585491186092,1,14.4,29.9
1.23333333333333,11.7982692164553,24.4411122526362,6.85135236840881,-0.0039751119483995,1,14.3666666666667,29.9
1.26666666666667,11.7977357553659,24.6694238002829,6.84737809728173,-0.00397427112707938,1,14.3333333333333,29.9
1.3,11.7971264419792,24.8976026961139,6.84340466092511,-0.00397343635661951,1,14.3,29.9
1.33333333333333,11.7964407021575,25.1256489402801,6.83943206672263,-0.00397259420247931,1,14.2666666666667,29.9
1.36666666666667,11.7956773493878,25.3535625314697,6.8354603016906,-0.00397176503202878,1,14.2333333333333,29.9
1.4,11.7948369567351,25.581343470841,6.83148925700589,-0.0039710446847101,1,14.2,29.9
1.43333333333333,11.7939217597703,25.8089917648382,6.82751902318461,-0.00397023382127859,1,14.1666666666667,29.9
1.46666666666667,11.7929347551363,26.0365074712293,6.82355341220601,-0.00396561097860726,1,14.1333333333333,29.9
1.5,11.7918790130964,26.2638909118475,6.81960413269685,-0.00394927950915758,1,14.1,29.9
1.53333333333333,11.7907572315964,26.491142879314,6.81568652490627,-0.00391760779058092,1,14.0666666666667,29.9
1.56666666666667,11.7895715152897,26.7182646301865,6.81181209098551,-0.00387443392075681,1,14.0333333333333,29.9
1.6,11.7883233332003,26.9452577002284,6.8079863930432,-0.00382569794231191,1,14,29.9
1.63333333333333,11.7870135948071,27.1721237323654,6.8042089858674,-0.00377740717580011,1,13.9666666666667,29.9
1.66666666666667,11.7856427427367,27.3988744308767,6.8016104507286,-0.00259853513879627,1,13.9333333333333,29.9
1.7,11.7842105232728,27.6256145495105,6.80415049328659,0.00254004255798712,1,13.9,29.9
1.73333333333333,11.7827159774122,27.8525519412627,6.81357024279818,0.00941974951158819,1,13.8666666666667,29.9
1.76666666666667,11.7811577845864,28.0799209681191,6.83004860812371,0.0164783653255292,1,13.8333333333333,29.9
1.8,11.7795344119277,28.3079524744696,6.85326885529038,0.0232202471666687,4,13.8,29.9
1.83333333333333,11.77784417618,28.5368617251064,6.88262605043541,0.029357195145038,4,13.7666666666667,29.9
1.86666666666667,11.7760852785118,28.7668418708919,6.91744069163464,0.0348146411992296,4,13.7333333333333,29.9
1.9,11.7742558124659,28.9980637482181,6.95704982819882,0.0396091365641738,4,13.7,29.9
1.93333333333333,11.7723537812038,29.2306761007828,7.00079487049013,0.0437450422913122,4,13.6666666666667,29.9
1.96666666666667,11.7703771247583,29.4648063610274,7.04806017100307,0.0472653005129358,4,13.6333333333333,29.9
2,11.7683237527062,29.7005622357278,7.09827716157518,0.0502169905721193,4,13.6,29.9
2.03333333333333,11.766191581443,29.9380332806222,7.15092665674393,0.0526494951687422,4,13.5666666666667,29.9
2.06666666666667,11.7639785682195,30.177292659289,7.20554447345065,0.0546178167067204,4,13.5333333333333,29.9
2.1,11.7616835626996,30.4183989129473,7.26171530230193,0.0561708288512817,4,13.5,29.9
2.13333333333333,11.7593081832439,30.6613975305381,7.31907062819069,0.0573553258887562,4,13.4666666666667,29.9
2.16666666666667,11.7568534168449,30.9063225691759,7.37729368634542,0.0582230581547361,4,13.4333333333333,29.9
2.2,11.7543190021385,31.1531983823079,7.43611936811599,0.0588256817705686,4,13.4,29.9
2.23333333333333,11.7517038360552,31.4020412916302,7.49533063661695,0.0592112685009623,4,13.3666666666667,29.9
2.26666666666667,11.7490063300695,31.6528611042532,7.55475306762211,0.0594224310051583,4,13.3333333333333,29.9
2.3,11.7462246743065,31.9056624297807,7.61424812715301,0.0594950595308976,4,13.3,29.9
2.33333333333333,11.7433570040697,32.1604457039584,7.67370217597078,0.0594540488177744,4,13.2666666666667,29.9
2.36666666666667,11.7404014859826,32.4172078877896,7.7330201064644,0.0593179304936173,4,13.2333333333333,29.9
2.4,11.7373563491947,32.6759430187964,7.79212065814045,0.0591005516760506,4,13.2,29.9
2.43333333333333,11.7342198885431,32.9366426221216,7.85093492425785,0.0588142661173965,4,13.1666666666667,29.9
2.46666666666667,11.7309913971564,33.1992961816318,7.90940844687936,0.0584735226215169,4,13.1333333333333,29.9
2.5,11.7276732328819,33.4638915418307,7.96749263397172,0.0580841870923523,4,13.1,29.9
2.53333333333333,11.7242678272906,33.7304149581149,8.02514268719066,0.0576500532189428,4,13.0666666666667,29.9
2.56666666666667,11.7207790629254,33.9988512254152,8.08230485885174,0.0571621716610764,4,13.0333333333333,29.9
2.6,11.717209066193,34.2691826026788,8.13889205003381,0.0565871911820715,4,13,29.9
2.63333333333333,11.7135580687806,34.5413891060868,8.19486655585057,0.0559745058167671,4,12.9666666666667,29.9
2.66666666666667,11.7098252071042,34.8154507016042,8.25026331101125,0.0553967551606735,4,12.9333333333333,29.9
2.7,11.7060091000379,35.0913487253436,8.30510892045407,0.0548456094428236,4,12.9,29.9
2.73333333333333,11.7021082315823,35.3690641155096,8.35934845061545,0.0542395301613787,4,12.8666666666667,29.9
2.76666666666667,11.6981211564989,35.6485748328648,8.4128747810168,0.053526330401354,4,12.8333333333333,29.9
2.8,11.6940465534296,35.9298556402066,8.46560739310147,0.0527326120846663,4,12.8,29.9
2.83333333333333,11.6898842050385,36.2128791702641,8.51749861681165,0.0518912237101805,4,12.7666666666667,29.9
2.86666666666667,11.6856371252328,36.4976170218943,8.56852659383231,0.0510279770206612,4,12.7333333333333,29.9
2.9,11.6813073437246,36.784039908863,8.61865666791878,0.0501300740864732,4,12.7,29.9
2.93333333333333,11.6768953410486,37.0721170707003,8.66783747054466,0.0491808026258731,4,12.6666666666667,29.9
2.96666666666667,11.6724006888276,37.3618161441743,8.71603196282472,0.0481944922800626,4,12.6333333333333,29.9
3,11.667823529736,37.6531036608901,8.7631974892981,0.0471655264733783,4,12.6,29.9
3.03333333333333,11.6631670314044,37.9459437343063,8.80923024987061,0.0460327605725137,4,12.5666666666667,29.9
3.06666666666667,11.6584334844805,38.2402967944987,8.85401823577853,0.0447879859079148,4,12.5333333333333,29.9
3.1,11.6536238364517,38.5361192885722,8.89743933619481,0.0434211004162801,4,12.5,29.9
3.13333333333333,11.6487383043595,38.8333632425672,8.93933389171755,0.0418945555227435,4,12.4666666666667,29.9
3.16666666666667,11.6437768308503,39.1319742723341,8.97948946917199,0.040155577454442,4,12.4333333333333,29.9
