Time,x_ego,y_ego,velocity,acceleration,action,x_ped,y_ped
0,11.8,8.9,7,0,1,15.5,29.9
0.0333333333333333,11.8,9.13327037939431,6.99615577953002,-0.00384422046998356,1,15.5,29.9
0.0666666666666667,11.8,9.36640659881126,6.99196947109348,-0.00418630843653833,1,15.5,29.9
0.1,11.8,9.59940075527911,6.98769498718995,-0.00427448390352669,1,15.5,29.9
0.133333333333333,11.8,9.83225378528415,6.9834976545359,-0.00419733265404787,1,15.5,29.9
0.166666666666667,11.8,10.0649678802301,6.97935585456763,-0.00414179996826913,1,15.5,29.9
0.2,11.8,10.2975446186632,6.97525409491249,-0.00410175965514537,1,15.5,29.9
0.233333333333333,11.8,10.5299851399444,6.97118127319767,-0.00407282171482137,1,15.5,29.9
0.266666666666667,11.8,10.7622902687052,6.96712943294736,-0.00405184025031069,1,15.5,29.9
0.3,11.8,10.9944606040335,6.96309287213007,-0.00403656081728965,1,15.5,29.9
0.333333333333333,11.8,11.2264965833863,6.95906750439986,-0.00402536773020401,1,15.5,29.9
0.366666666666667,11.8,11.4583985283897,6.95505040137947,-0.00401710302039238,1,15.5,29.9
0.4,11.8,11.6901666776599,6.95103946463339,-0.00401093674607722,1,15.5,29.9
0.433333333333333,11.8,11.9218012103233,6.94703319054231,-0.00400627409108711,1,15.5,29.9
0.466666666666667,11.8,12.1533022628712,6.94303050173604,-0.00400268880626342,1,15.5,29.9
0.5,11.8,12.3846699412377,6.93903062623031,-0.00399987550573222,1,15.5,29.9
0.533333333333333,11.8,12.6159043294559,6.93503301077307,-0.00399761545723631,1,15.5,29.9
0.566666666666667,11.8,12.8470054958598,6.93103725873891,-0.00399575203416092,1,15.5,29.9
0.6,11.8,13.0779734975296,6.92704308564579,-0.003994173093127,1,15.5,29.9
0.633333333333333,11.8,13.3088083834769,6.92305028732138,-0.00399279832440236,1,15.5,29.9
0.666666666666667,11.8,13.539510196927,6.91905871714157,-0.00399157017981544,1,15.5,29.9
0.7,11.8,13.7700789769551,6.91506826976362,-0.00399044737794529,1,15.5,29.9
0.733333333333333,11.7999951154258,14.0005147596493,6.91107888145388,-0.0039893883097406,1,15.5,29.9
0.766666666666667,11.7999645209488,14.2308175786483,6.90709059450628,-0.00398828694760489,1,15.5,29.9
0.8,11.799889965237,14.4609874641638,6.90310351281947,-0.00398708168680439,1,15.5,29.9
0.833333333333333,11.799755019797,14.6910244406266,6.89911772834637,-0.00398578447310616,1,15.5,29.9
0.866666666666667,11.7995475580575,14.9209285244992,6.89513318429417,-0.00398454405219972,1,15.5,29.9
0.9,11.7992623307091,15.1506997246856,6.89114967656765,-0.00398350772651845,1,15.5,29.9
0.933333333333333,11.7988991955425,15.3803380454955,6.88716699057349,-0.0039826859941563,1,15.5,29.9
0.966666666666667,11.7984609208616,15.6098434904303,6.88318498076764,-0.00398200980584917,1,15.5,29.9
1,11.7979516569495,15.8392160653168,6.87920358804867,-0.00398139271897602,1,15.5,29.9
1.03333333333333,11.7973760034562,16.0684557801095,6.87522281777034,-0.0039807702783321,1,15.5,29.9
1.06666666666667,11.7967385134896,16.297562649406,6.87124270751785,-0.00398011025248568,1,15.5,29.9
1.1,11.796042670821,16.526536690722,6.86726339802363,-0.00397930949422243,1,15.5,29.9
1.13333333333333,11.7952881571735,16.7553779177117,6.86328506636273,-0.00397833166089701,1,15.5,29.9
1.16666666666667,11.7944713484215,16.9840863365232,6.85930780728967,-0.00397725907305801,1,15.5,29.9
1.2,11.7935866421504,17.2126619448117,6.85533166376723,-0.0039761435224408,1,15.5,29.9
1.23333333333333,11.7926272213685,17.4411047310246,6.85135664831443,-0.00397501545280221,1,15.5,29.9
1.26666666666667,11.791585677618,17.6694146742342,6.84738276049075,-0.00397388782367791,1,15.5,29.9
1.3,11.7904534087088,17.8975917409041,6.84341012967514,-0.00397263081560961,1,15.5,29.9
1.33333333333333,11.7892190341196,18.1256358770844,6.83943883091567,-0.00397129875947311,1,15.5,29.9
1.36666666666667,11.7878726616216,18.3535470195936,6.83546862723034,-0.00397020368532974,1,15.5,29.9
1.4,11.7864086042909,18.5813251087518,6.83149934530106,-0.0039692819292787,1,15.5,29.9
1.43333333333333,11.7848226969646,18.8089700831517,6.82753084079995,-0.00396850450110797,1,15.5,29.9
1.46666666666667,11.7831139837964,19.036481891246,6.82356287885327,-0.00396796194668525,1,15.5,29.9
1.5,11.7812833723461,19.263860490875,6.8195955267787,-0.00396735207456711,1,15.5,29.9
1.53333333333333,11.7793306283252,19.491105835899,6.81562883319623,-0.0039666935824707,1,15.4972222222222,29.9
1.56666666666667,11.7772569527044,19.7182178901492,6.81166267190499,-0.00396616129123561,1,15.4888888888889,29.9
1.6,11.7750650627412,19.9451966308347,6.80769698470089,-0.00396568720410784,1,15.475,29.9
1.63333333333333,11.7727584277922,20.1720420460078,6.8037317703364,-0.00396521436448172,1,15.4555555555556,29.9
1.66666666666667,11.7703406692822,20.3987541312362,6.79976706906773,-0.00396470126867321,1,15.4305555555556,29.9
1.7,11.7678151313067,20.6253328860779,6.79580294610746,-0.00396412296027115,1,15.4,29.9
1.73333333333333,11.7651846131566,20.8517783108775,6.79183947665166,-0.00396346945580373,1,15.3666666666667,29.9
1.76666666666667,11.7624512439154,21.0780904042495,6.78787673407872,-0.00396274257293339,1,15.3333333333333,29.9
1.8,11.7596156919577,21.3042691539041,6.78391498246442,-0.00396175161430179,1,15.3,29.9
1.83333333333333,11.7566754644551,21.5303145162453,6.77995433867976,-0.00396064378465955,1,15.2666666666667,29.9
1.86666666666667,11.7536266421263,21.7562264276782,6.77599509030209,-0.00395924837767492,1,15.2333333333333,29.9
1.9,11.7504594035583,21.9820047519896,6.77203773103468,-0.00395735926740581,1,15.2,29.9
1.93333333333333,11.7471591527909,22.2076492795224,6.76808251060617,-0.00395522042850871,1,15.1666666666667,29.9
1.96666666666667,11.7437080961222,22.4331597336856,6.76412977083181,-0.00395273977436084,1,15.1333333333333,29.9
2,11.7400866649751,22.6585357785836,6.76017914665387,-0.00395062417794456,1,15.1,29.9
2.03333333333333,11.7362823876891,22.883777127849,6.75622986188277,-0.00394928477110046,1,15.0666666666667,29.9
2.06666666666667,11.732287985423,23.1088835357488,6.75228127663715,-0.00394858524562025,1,15.0333333333333,29.9
2.1,11.7281018111081,23.3338548188636,6.74833273277791,-0.00394854385923438,1,15,29.9
2.13333333333333,11.7237262817228,23.5586908529595,6.74438408398456,-0.00394864879335088,1,14.9666666666667,29.9
2.16666666666667,11.7191651802822,23.7833915850678,6.74043861205569,-0.0039454719288754,1,14.9333333333333,29.9
2.2,11.7144197115464,24.0079571313099,6.73650578530544,-0.00393282675024853,1,14.9,29.9
2.23333333333333,11.7094892299269,24.2323879558606,6.7325985753314,-0.00390720997403626,1,14.8666666666667,29.9
2.26666666666667,11.7043740401569,24.4566849767076,6.72872939230272,-0.00386918302868366,1,14.8333333333333,29.9
2.3,11.6990736764034,24.6808494342671,6.72490562284698,-0.00382376945573881,1,14.8,29.9
2.33333333333333,11.6935892277267,24.9048827617973,6.72112965667127,-0.00377596617571196,1,14.7666666666667,29.9
2.36666666666667,11.6879231898291,25.128788771232,6.71777476179869,-0.00335489487257679,1,14.7333333333333,29.9
2.4,11.682077386787,25.3526305603538,6.71828409938936,0.00050933759066929,1,14.7,29.9
2.43333333333333,11.6760508837008,25.57659046008,6.72533865613732,0.00705455674796163,1,14.6666666666667,29.9
2.46666666666667,11.6698408019937,25.8008987153387,6.73950347210663,0.0141648159693126,1,14.6333333333333,29.9
2.5,11.6634428850274,26.0257921131396,6.76071334099168,0.0212098688850428,4,14.6,29.9
2.53333333333333,11.6568525018583,26.2515008653392,6.78869165305766,0.0279783120659873,4,14.5666666666667,29.9
2.56666666666667,11.6500665493465,26.4782468411523,6.82324167159183,0.034550018534163,4,14.5333333333333,29.9
2.6,11.6430803410078,26.706246548141,6.8642242105089,0.0409825389170786,4,14.5,29.9
2.63333333333333,11.6358871281846,26.9357122498748,6.91152461657013,0.0473004060612245,4,14.4666666666667,29.9
2.66666666666667,11.6284786118155,27.1668517664976,6.96497060611344,0.0534459895433059,4,14.4333333333333,29.9
2.7,11.6208454891578,27.3998647017075,7.02424561215748,0.0592750060440439,4,14.4,29.9
2.73333333333333,11.6129779179912,27.6349381056575,7.08891730169668,0.0646716895392032,4,14.3666666666667,29.9
2.76666666666667,11.6048658432154,27.8722434420643,7.15849873012732,0.0695814284306335,4,14.3333333333333,29.9
2.8,11.596499191691,28.1119352691043,7.23245312585741,0.0739543957300963,4,14.3,29.9
2.83333333333333,11.5878680340034,28.3541492599111,7.31019865464338,0.0777455287859699,4,14.2666666666667,29.9
2.86666666666667,11.5789626720742,28.5990019499663,7.39117399925826,0.0809753446148749,4,14.2333333333333,29.9
2.9,11.569773684637,28.8465916963935,7.47485179142712,0.0836777921688663,4,14.2,29.9
2.93333333333333,11.5602919648589,29.0969999480247,7.56074649401936,0.085894702592241,4,14.1666666666667,29.9
2.96666666666667,11.5505087514979,29.3502927369499,7.64841969685402,0.087673202834659,4,14.1333333333333,29.9
3,11.5404156499186,29.6065222913012,7.73748140159373,0.0890617047397049,4,14.1,29.9
3.03333333333333,11.530004643973,29.8657285113333,7.82758019378572,0.090098792191994,4,14.0666666666667,29.9
3.06666666666667,11.5192681014427,30.1279400957241,7.9183928094838,0.0908126156980824,4,14.0333333333333,29.9
3.1,11.5081987777658,30.3931751912969,8.00961312471395,0.0912203152301503,4,14,29.9
3.13333333333333,11.4967897823499,30.6614426255133,8.10099317672337,0.091380052009411,4,13.9666666666667,29.9
3.16666666666667,11.4850345005655,30.9327439846811,8.19234475067839,0.0913515739550288,4,13.9333333333333,29.9
3.2,11.4729265186521,31.2070753961058,8.2835263093005,0.0911815586221074,4,13.9,29.9
3.23333333333333,11.46046055366,31.4844287957222,8.37442210381843,0.0908957945179232,4,13.8666666666667,29.9
3.26666666666667,11.4476365091387,31.7647927681198,8.46493391221986,0.0905118084014394,4,13.8333333333333,29.9
3.3,11.4344615131648,32.0481533287411,8.55498605252428,0.0900521403044188,4,13.8,29.9
3.33333333333333,11.420948434963,32.3344946404004,8.64452523938389,0.0895391868596036,4,13.7666666666667,29.9
3.36666666666667,11.4071155773709,32.6237997156032,8.73351803441049,0.0889927950266021,4,13.7333333333333,29.9
3.4,11.3929819621087,32.9160507974162,8.82194652888977,0.0884284944792793,4,13.7,29.9
3.43333333333333,11.3785671844035,33.2112297873777,8.90980345698418,0.0878569280944141,4,13.6666666666667,29.9
3.46666666666667,11.3638845861632,33.5093180622822,8.99707874842683,0.0872752914426496,4,13.6333333333333,29.9
3.5,11.3489411193582,33.810296243971,9.08375675131938,0.0866780028925458,4,13.6,29.9
3.53333333333333,11.3337368816429,34.1141441341476,9.16982501964116,0.086068268321787,4,13.5666666666667,29.9
3.56666666666667,11.318267935102,34.4208410153917,9.25527606012727,0.0854510404861077,4,13.5333333333333,29.9
3.6,11.3025288338886,34.730365653907,9.34008714453416,0.0848110844068923,4,13.5,29.9
3.63333333333333,11.2865171814506,35.0426958408726,9.42421514173568,0.0841279972015112,4,13.4666666666667,29.9
3.66666666666667,11.2702430756291,35.3578083131185,9.50760193725823,0.0833867955225589,4,13.4333333333333,29.9
3.7,11.2537233811888,35.6756779611249,9.59017264350848,0.0825707062502428,4,13.4,29.9
3.73333333333333,11.2369811867765,35.9962773842361,9.6718440722384,0.0816714287299245,4,13.3666666666667,29.9
3.76666666666667,11.2200410684717,36.3195753587497,9.75245237847909,0.0806083062406895,4,13.3333333333333,29.9
3.8,11.2029204849692,36.6455346236906,9.83185855030082,0.0794061718217272,4,13.3,29.9
3.83333333333333,11.1856311540326,36.9741152263095,9.91004509202534,0.0781865417245253,4,13.2666666666667,29.9
3.86666666666667,11.1681813774064,37.3052755506666,9.9868925221508,0.0768474301254525,4,13.2333333333333,29.9
3.9,11.150574913818,37.6389660754092,10.0620804829933,0.0751879608424684,4,13.2,29.9
3.93333333333333,11.1328146174755,37.9751251160874,10.1352108750441,0.0731303920508815,4,13.1666666666667,29.9
3.96666666666667,11.1149103160885,38.3136774517086,10.2058892005983,0.0706783255541481,4,13.1333333333333,29.9
4,11.0968841031838,38.6545399394759,10.2740136366016,0.0681244360032682,4,13.1,29.9
4.03333333333333,11.0787667817157,38.9976289837788,10.339592036667,0.0655784000654283,4,13.0666666666667,29.9
