Time,x_ego,y_ego,velocity,acceleration,action,x_ped,y_ped
0,11.8,8.9,7,0,1,15.5,29.9
0.0333333333333333,11.7999925696016,9.13327037937389,6.99615580681043,-0.00384419318957363,1,15.5,29.9
0.0666666666666667,11.7999460775571,9.36640659801106,6.99196977234753,-0.00418603446289634,1,15.5,29.9
0.1,11.7998353607492,9.59940074807641,6.9876960160038,-0.00427375634372673,1,15.5,29.9
0.133333333333333,11.7996473706544,9.83225375327105,6.98349981062339,-0.00419620538040988,1,15.5,29.9
0.166666666666667,11.7993775566727,10.064967783964,6.9793593072795,-0.00414050334389415,1,15.5,29.9
0.2,11.7990258254392,10.2975443920497,6.97525884907308,-0.00410045820642146,1,15.5,29.9
0.233333333333333,11.7985922514288,10.5299846867939,6.97118723362181,-0.00407161545126744,1,15.5,29.9
0.266666666666667,11.7980787355163,10.7622894629124,6.96713639568986,-0.00405083793195526,1,15.5,29.9
0.3,11.7974878533552,10.9944592918728,6.96310069788333,-0.00403569780652369,1,15.5,29.9
0.333333333333333,11.7968201527944,11.2264945836656,6.95907611057698,-0.00402458730634692,1,15.5,29.9
0.366666666666667,11.7960771387275,11.4583956354265,6.95505965350979,-0.00401645706719567,1,15.5,29.9
0.4,11.795261612797,11.690162665879,6.95104919763747,-0.00401045587232041,1,15.5,29.9
0.433333333333333,11.7943770472352,11.9217958387535,6.94704323071757,-0.00400596691989374,1,15.5,29.9
0.466666666666667,11.7934270341756,12.1532952787729,6.94304068697944,-0.00400254373813524,1,15.5,29.9
0.5,11.7924148470252,12.3846610824054,6.93904082192435,-0.00399986505508831,1,15.5,29.9
0.533333333333333,11.7913431408763,12.6158933250788,6.93504311943994,-0.00399770248441556,1,15.5,29.9
0.566666666666667,11.7902138017853,12.846992066112,6.93104722284801,-0.00399589659192934,1,15.5,29.9
0.6,11.7890279347244,13.077957352256,6.92705288435259,-0.00399433849541975,1,15.5,29.9
0.633333333333333,11.7877859622242,13.308789220428,6.92305992892212,-0.00399295543046563,1,15.5,29.9
0.666666666666667,11.7864877941715,13.5394876999799,6.91906822940775,-0.00399169951436651,1,15.5,29.9
0.7,11.7851330258462,13.770052814662,6.91507769013718,-0.00399053927057569,1,15.5,29.9
0.733333333333333,11.7837211258184,14.0004845843225,6.91108823662108,-0.00398945351609648,1,15.5,29.9
0.766666666666667,11.7822515857581,14.2307830263251,6.90709980944681,-0.00398842717427428,1,15.5,29.9
0.8,11.7807240175097,14.4609481566463,6.90311236086653,-0.00398744858027378,1,15.5,29.9
0.833333333333333,11.7791381958437,14.6909799906402,6.89912585295842,-0.00398650790811317,1,15.5,29.9
0.866666666666667,11.7774940556229,14.9208785434866,6.8951402565394,-0.00398559641902185,1,15.5,29.9
0.9,11.7757916582683,15.1506438303803,6.89115555026574,-0.00398470627365999,1,15.5,29.9
0.933333333333333,11.774031144113,15.3802758665394,6.88717171959807,-0.00398383066766517,1,15.5,29.9
0.966666666666667,11.7722126851975,15.6097746671193,6.88318875552777,-0.00398296407030063,1,15.5,29.9
1,11.7703364486191,15.8391402471078,6.87920665313391,-0.0039821023938682,1,15.5,29.9
1.03333333333333,11.7684017858166,16.0683726158116,6.87522551950295,-0.00398113363095209,1,15.5,29.9
1.06666666666667,11.7664046069775,16.2974717571563,6.87124550978517,-0.00398000971777979,1,15.5,29.9
1.1,11.7643379694768,16.5264376297433,6.86726669952023,-0.00397881026494229,1,15.5,29.9
1.13333333333333,11.7621935079523,16.7552701739872,6.8632891169381,-0.00397758258212733,1,15.5,29.9
1.16666666666667,11.7599614688385,16.983969310006,6.85931289565993,-0.0039762212781751,1,15.5,29.9
1.2,11.7576303498554,17.2125349318896,6.85533794813258,-0.00397494752735295,1,15.5,29.9
1.23333333333333,11.7551932152008,17.4409669582897,6.85136392790664,-0.00397402022593063,1,15.5,29.9
1.26666666666667,11.7526477622202,17.6692653394651,6.84739057494998,-0.00397335295666679,1,15.5,29.9
1.3,11.7499946390051,17.8974300496137,6.84341773548039,-0.0039728394695917,1,15.5,29.9
1.33333333333333,11.7472361289504,18.1254610801221,6.83944535674406,-0.00397237873633038,1,15.5,29.9
1.36666666666667,11.7443752451508,18.3533584341958,6.83547345970193,-0.0039718970421303,1,15.5,29.9
1.4,11.7414151814791,18.5811221228598,6.83150210460263,-0.00397135509929658,1,15.5,29.9
1.43333333333333,11.7383590212973,18.8087521620615,6.82753136225708,-0.00397074234554751,1,15.5,29.9
1.46666666666667,11.7352095997416,19.0362485704891,6.8235612966436,-0.00397006561348512,1,15.5,29.9
1.5,11.7319694369526,19.2636113677407,6.81959195833285,-0.00396933831074442,1,15.5,29.9
1.53333333333333,11.7286406923243,19.4908405726076,6.81562338514041,-0.00396857319244148,1,15.4916666666667,29.9
1.56666666666667,11.7252251213265,19.7179362014226,6.8116556059458,-0.00396777919460778,1,15.4666666666667,29.9
1.6,11.7217240388216,19.9448982665904,6.80768864459517,-0.00396696135063213,1,15.425,29.9
1.63333333333333,11.7181383030655,20.1717267755075,6.80372252224404,-0.00396612235113558,1,15.3752276867031,29.9
1.66666666666667,11.7144683339117,20.3984217300706,6.79975725779359,-0.00396526445044021,1,15.3259107468124,29.9
1.7,11.7107141707026,20.6249831388595,6.79579420561108,-0.00396305218251314,1,15.2770491803279,29.9
1.73333333333333,11.7068755637493,20.8514111319789,6.7918397748697,-0.00395443074138146,1,15.2286429872495,29.9
1.76666666666667,11.7029520864827,21.0777061101414,6.78790344162965,-0.00393633324005283,1,15.1806921675774,29.9
1.8,11.6989432516341,21.3038687977179,6.78399484904941,-0.00390859258024001,1,15.1331967213115,29.9
1.83333333333333,11.6948486130717,21.5299002194618,6.78012220584316,-0.00387264320625036,1,15.0861566484517,29.9
1.86666666666667,11.6906678391111,21.7558016409762,6.77629154702328,-0.00383065881987843,1,15.0395719489982,29.9
1.9,11.686401570018,21.9815744969327,6.77250568697075,-0.0037858600525329,1,14.9934426229508,29.9
1.93333333333333,11.6820532801697,22.2072206318651,6.76883207375523,-0.00367361321551307,1,14.9477686703097,29.9
1.96666666666667,11.6776262264687,22.432767440354,6.76730335018889,-0.00152872356633971,1,14.9025500910747,29.9
2,11.6731239387959,22.6583473536698,6.77122341033024,0.00392006014134694,1,14.8577868852459,29.9
2.03333333333333,11.6685513112497,22.8841619766033,6.78149223918522,0.0102688288549775,1,14.8134790528233,29.9
2.06666666666667,11.6639155246236,23.1104226482824,6.79800868370033,0.0165164445151174,1,14.7696265938069,29.9
2.1,11.6592205406659,23.337330783307,6.82031694329579,0.0223082595954596,4,14.7262295081967,29.9
2.13333333333333,11.6544686404826,23.5650706672227,6.84786786987283,0.0275509265770362,4,14.6832877959927,29.9
2.16666666666667,11.6496587677674,23.7938058177951,6.8799793042759,0.0321114344030677,4,14.6408014571949,29.9
2.2,11.6447871864339,24.0236772792988,6.91600975947528,0.0360304551993806,4,14.5987704918033,29.9
2.23333333333333,11.6398487119269,24.2548060722216,6.955401797874,0.0393920383987165,4,14.5571948998179,29.9
2.26666666666667,11.6348375873759,24.4872960209157,6.99768242796683,0.0422806300928364,4,14.5160746812386,29.9
2.3,11.6297480336873,24.7212365793882,7.04246103229032,0.0447786043234837,4,14.4754098360656,29.9
2.33333333333333,11.6245745535085,24.9567052377584,7.08940571711939,0.0469446848290778,4,14.4352003642987,29.9
2.36666666666667,11.61931207867,25.1937692993904,7.13823838281558,0.0488326656961853,4,14.3954462659381,29.9
2.4,11.6139560230941,25.4324876141211,7.18872519645037,0.0504868136347874,4,14.3561475409836,29.9
2.43333333333333,11.6085023013719,25.6729117646909,7.24066423618215,0.0519390397317876,4,14.3173041894353,29.9
2.46666666666667,11.6029473276198,25.9150872072218,7.2938890819018,0.0532248457196447,4,14.2789162112933,29.9
2.5,11.5972879983645,26.1590544570114,7.34826990778039,0.0543808258785923,4,14.2409836065574,29.9
2.53333333333333,11.5915216547455,26.4048503359609,7.40371368756462,0.0554437797842251,4,14.2035063752277,29.9
2.56666666666667,11.5856460210108,26.6525091570676,7.46016464606191,0.0564509584972956,4,14.1664845173042,29.9
2.6,11.5796591094396,26.9020642292034,7.51761703840213,0.0574523923402142,4,14.1299180327869,29.9
2.63333333333333,11.5735591101074,27.1535490751914,7.5760815966952,0.0584645582930792,4,14.0938069216758,29.9
2.66666666666667,11.5673442994955,27.4069973465181,7.63555176043821,0.059470163743006,4,14.0581511839709,29.9
2.7,11.5610129696668,27.662441999625,7.69599166669426,0.060439906256045,4,14.0229508196721,29.9
2.73333333333333,11.5545633779923,27.9199142958927,7.75733620960084,0.061344542906582,4,13.9882058287796,29.9
2.76666666666667,11.5479937191893,28.1794429125436,7.8194968011335,0.0621605915326606,4,13.9539162112933,29.9
2.8,11.5413021198255,28.4410532785522,7.88236788494004,0.0628710838065407,4,13.9200819672131,29.9
2.83333333333333,11.534486656339,28.7047669900539,7.94582445361593,0.0634565686758881,4,13.9200819672131,29.9
2.86666666666667,11.5275453928903,28.9706012014517,8.00972715269982,0.0639026990838936,4,13.9200819672131,29.9
2.9,11.5204764240288,29.2385682763851,8.07392816440309,0.0642010117032719,4,13.9200819672131,29.9
2.93333333333333,11.5132779158975,29.5086756148923,8.13828035164919,0.0643521872460955,4,13.9200819672131,29.9
2.96666666666667,11.5059481322673,29.7809259355005,8.20265099678794,0.0643706451387569,4,13.9200819672131,29.9
3,11.4984854478085,30.0553177404724,8.2669184394772,0.0642674426892533,4,13.9200819672131,29.9
3.03333333333333,11.4908883551623,30.3318456480196,8.33097272139269,0.064054281915487,4,13.9200819672131,29.9
3.06666666666667,11.4831554593295,30.6105008793607,8.39471969586938,0.0637469744766985,4,13.9200819672131,29.9
3.1,11.4752854630316,30.8912718389933,8.45808756061807,0.0633678647486864,4,13.9200819672131,29.9
3.13333333333333,11.4672771445804,31.1741448293617,8.52100886024185,0.0629212996237793,4,13.9200819672131,29.9
3.16666666666667,11.4591293738539,31.459103302543,8.58339277766474,0.0623839174228866,4,13.9200819672131,29.9
3.2,11.4508410927062,31.7461284817012,8.6452011166033,0.0618083389385653,4,13.9200819672131,29.9
3.23333333333333,11.4424112543268,32.0352015225535,8.70647068378849,0.0612695671851853,4,13.9200819672131,29.9
3.26666666666667,11.4338387675353,32.3263054868874,8.76726346398817,0.0607927801996784,4,13.9200819672131,29.9
3.3,11.4251225015039,32.6194251470143,8.82761811876244,0.0603546547742777,4,13.9200819672131,29.9
3.33333333333333,11.4162613180642,32.9145458587035,8.88752996035019,0.0599118415877431,4,13.9200819672131,29.9
3.36666666666667,11.4072540981275,33.2116526880557,8.94699696526416,0.0594670049139765,4,13.9200819672131,29.9
3.4,11.3980997264286,33.5107309968345,9.00603585673777,0.0590388914736053,4,13.9200819672131,29.9
3.43333333333333,11.3887970851807,33.8117666824656,9.06465819789421,0.058622341156445,4,13.9200819672131,29.9
3.46666666666667,11.3793450644697,34.1147458201733,9.12286435534489,0.0582061574506731,4,13.9200819672131,29.9
3.5,11.3697425718172,34.4196543283701,9.18064360387091,0.0577792485260229,4,13.9200819672131,29.9
3.53333333333333,11.3599896254932,34.7264775426785,9.23796879277361,0.0573251889027055,4,13.9200819672131,29.9
3.56666666666667,11.3500906701384,35.0351999686396,9.29481683071031,0.0568480379366925,4,13.9200819672131,29.9
3.6,11.3400521830443,35.3458059453416,9.35119617497049,0.0563793442601881,4,13.9200819672131,29.9
3.63333333333333,11.3298788802808,35.6582804128895,9.4071360204478,0.0559398454773028,4,13.9200819672131,29.9
3.66666666666667,11.3195762125901,35.9726096573805,9.4626853175626,0.0555492971147977,4,13.9200819672131,29.9
3.7,11.3091469489407,36.2887813921196,9.51787838748317,0.0551930699205734,4,13.9200819672131,29.9
3.73333333333333,11.2985925735841,36.606783914285,9.57271866145331,0.0548402739701395,4,13.9200819672131,29.9
3.76666666666667,11.2879167348669,36.9266049812811,9.62715690610298,0.0544382446496758,4,13.9200819672131,29.9
3.8,11.2771215918371,37.2482292405623,9.68106419147187,0.0539072853688882,4,13.9200819672131,29.9
3.83333333333333,11.2662077626024,37.5716362929692,9.73426506190337,0.0532008704314944,4,13.9200819672131,29.9
3.86666666666667,11.2551752673005,37.8967975380207,9.78643143606889,0.0521663741655196,4,13.9200819672131,29.9
3.9,11.2440241662386,38.223672124335,9.83718604326921,0.0507546072003215,4,13.9200819672131,29.9
3.93333333333333,11.2327548093178,38.552207357822,9.88621678201095,0.0490307387417417,4,13.9200819672131,29.9
3.96666666666667,11.2213678187171,38.882342605769,9.9333511391757,0.0471343571647491,4,13.9200819672131,29.9
4,11.2098651600989,39.2140130109635,9.97850392133057,0.045152782154867,4,13.9200819672131,29.9
