Time,x_ego,y_ego,velocity,acceleration,action,x_ped,y_ped
0,11.8,15.9,5,0,1,15.5,29.9
0.0333333333333333,11.8,16.0666076888419,4.99642261439338,-0.0035773856066168,1,15.5,29.9
0.0666666666666667,11.8,16.2330926531145,4.99264756783477,-0.00377504655861216,1,15.5,29.9
0.1,11.8,16.399449296924,4.98873130122091,-0.00391626661385835,1,15.5,29.9
0.133333333333333,11.8,16.5656736245138,4.98471426828108,-0.00401703293983147,1,15.5,29.9
0.166666666666667,11.8,16.7317627870126,4.98062546389497,-0.00408880438611448,1,15.5,29.9
0.2,11.8,16.8977147575669,4.97648566969706,-0.00413979419790333,1,15.5,29.9
0.233333333333333,11.8,17.063528098494,4.97230978036584,-0.00417588933122204,1,15.5,29.9
0.266666666666667,11.8,17.2292017943893,4.96810847105553,-0.00420130931030815,1,15.5,29.9
0.3,11.8,17.3947351325064,4.96388939262275,-0.00421907843277847,1,15.5,29.9
0.333333333333333,11.8,17.5601276170202,4.95965802839236,-0.00423136423039949,1,15.5,29.9
0.366666666666667,11.8,17.7253789075748,4.95541830829244,-0.00423972009991047,1,15.5,29.9
0.4,11.8,17.8904887752388,4.95117304903021,-0.00424525926223307,1,15.5,29.9
0.433333333333333,11.8,18.0554570709351,4.94692426953351,-0.00424877949670321,1,15.5,29.9
0.466666666666667,11.8,18.2202837028143,4.94267341695966,-0.00425085257384605,1,15.5,29.9
0.5,11.8,18.3849686200364,4.93842152859998,-0.00425188835968093,1,15.5,29.9
0.533333333333333,11.8,18.5495118011469,4.93416934785826,-0.00425218074171951,1,15.5,29.9
0.566666666666667,11.8,18.7139132457448,4.92991740734792,-0.00425194051033717,1,15.5,29.9
0.6,11.8,18.8781729685112,4.9256660884612,-0.00425131888672592,1,15.5,29.9
0.633333333333333,11.8,19.0422909949291,4.92141566410698,-0.00425042435422096,1,15.5,29.9
0.666666666666667,11.8,19.2062673582159,4.91716632940257,-0.00424933470440969,1,15.5,29.9
0.7,11.8,19.3701020971241,4.91291822373206,-0.00424810567050482,1,15.5,29.9
0.733333333333333,11.8,19.5337952543655,4.9086714466029,-0.0042467771291621,1,15.5,29.9
0.766666666666667,11.8,19.697346875482,4.90442606903452,-0.00424537756837751,1,15.5,29.9
0.8,11.8,19.8607570080352,4.90018214171998,-0.00424392731454049,1,15.5,29.9
0.833333333333333,11.7999976352516,20.0240257010252,4.89593970498705,-0.00424243673293212,1,15.5,29.9
0.866666666666667,11.7999818399822,20.1871530043913,4.89169883002768,-0.00424087495937009,1,15.5,29.9
0.9,11.7999396790461,20.3501389681648,4.88745964668641,-0.00423918334127471,1,15.5,29.9
0.933333333333333,11.799857169399,20.5129836408584,4.88322234217692,-0.00423730450948856,1,15.5,29.9
0.966666666666667,11.7997205683756,20.6756870671294,4.87898708405469,-0.00423525812222447,1,15.5,29.9
1,11.7995187895005,20.8382492855667,4.87475398491515,-0.00423309913954562,1,15.5,29.9
1.03333333333333,11.7992415794485,21.0006703265784,4.87052315663926,-0.00423082827588939,1,15.5,29.9
1.06666666666667,11.7988797821049,21.1629502108813,4.86629458397679,-0.00422857266246979,1,15.5,29.9
1.1,11.7984281664519,21.3250889509117,4.86206797048212,-0.00422661349466669,1,15.5,29.9
1.13333333333333,11.797886139582,21.4870865549089,4.8578430987436,-0.00422487173852382,1,15.5,29.9
1.16666666666667,11.7972530756899,21.648943026961,4.85361990270527,-0.00422319603833277,1,15.5,29.9
1.2,11.7965285992798,21.8106583684387,4.84939838151403,-0.00422152119123265,1,15.5,29.9
1.23333333333333,11.795711272475,21.9722325764342,4.84517853692082,-0.00421984459321401,1,15.5,29.9
1.26666666666667,11.7948010231985,22.1336656479036,4.84096004850065,-0.0042184884201637,1,15.5,29.9
1.3,11.7938012253463,22.2949575876218,4.8367425099603,-0.00421753854035867,1,15.5,29.9
1.33333333333333,11.7927178169129,22.4561084120186,4.83252567239242,-0.00421683756787772,1,15.5,29.9
1.36666666666667,11.7915578980524,22.6171181497504,4.82830946567635,-0.00421620671607048,1,15.5,29.9
1.4,11.7903285984832,22.7779868401391,4.82409397244887,-0.00421549322747783,1,15.5,29.9
1.43333333333333,11.7890362804725,22.9387145301639,4.8198793737572,-0.00421459869166707,1,15.5,29.9
1.46666666666667,11.7876860775304,23.0993012708581,4.81566588948064,-0.00421348427656376,1,15.5,29.9
1.5,11.786281721611,23.2597471138899,4.81145373040504,-0.00421215907560413,1,15.5,29.9
1.53333333333333,11.7848255857679,23.4200521088544,4.80724306912642,-0.00421066127861458,1,15.4777777777778,29.9
1.56666666666667,11.7833194286313,23.5802163345402,4.80303713145024,-0.00420593767618538,1,15.4111111111111,29.9
1.6,11.7817660129122,23.7402401785292,4.79885097493027,-0.00418615651996301,1,15.3,29.9
1.63333333333333,11.780167690783,23.9001246661203,4.79470648841876,-0.00414448651151478,1,15.1698412698413,29.9
1.66666666666667,11.7785274965359,24.0598715778857,4.79062574612665,-0.00408074229211053,1,15.0460317460317,29.9
1.7,11.7768471135822,24.2194833494338,4.78662566396391,-0.00400008216274195,1,14.9285714285714,29.9
1.73333333333333,11.7751271681753,24.3789628230835,4.78271428948223,-0.00391137448167544,1,14.8174603174603,29.9
1.76666666666667,11.7733690673873,24.5383129980812,4.7788930119544,-0.00382127752782502,1,14.7126984126984,29.9
1.8,11.7715732000436,24.6975368321534,4.7751587474434,-0.003734264511003,1,14.6142857142857,29.9
1.83333333333333,11.7697387150043,24.8566403652866,4.77205702563568,-0.00310172180772472,1,14.5222222222222,29.9
1.86666666666667,11.7678631452258,25.0157281362602,4.77561300042009,0.00355597478441272,1,14.4365079365079,29.9
1.9,11.7659416313304,25.1751238849351,4.79091942518563,0.0153064247655434,1,14.3571428571429,29.9
1.93333333333333,11.7639681679366,25.3352362799663,4.81851529425515,0.0275958690695131,4,14.284126984127,29.9
1.96666666666667,11.7619366066134,25.4964562557808,4.85717658282312,0.038661288567976,4,14.2174603174603,29.9
2,11.7598410164302,25.6591277080456,4.90536774636769,0.0481911635445726,4,14.1571428571429,29.9
2.03333333333333,11.7576758327664,25.8235401165947,4.96140086363588,0.0560331172681803,4,14.1031746031746,29.9
2.06666666666667,11.7554359353368,25.9899275556515,5.02366246468986,0.0622616010539874,4,14.0555555555556,29.9
2.1,11.7531160769326,26.1584729961689,5.09071471271759,0.0670522480277267,4,14.0142857142857,29.9
2.13333333333333,11.7507081965059,26.3293155636316,5.16138213696493,0.0706674242473406,4,13.9793650793651,29.9
2.16666666666667,11.748199488334,26.5025606218344,5.23482743246735,0.0734452955024176,4,13.9507936507936,29.9
2.2,11.7455741576697,26.6782916184266,5.31058631954909,0.0757588870817409,4,13.9285714285714,29.9
2.23333333333333,11.7428171530207,26.856583875915,5.38863344956635,0.0780471300172634,4,13.9126984126984,29.9
2.26666666666667,11.7399157779653,27.0375171276398,5.4692089934329,0.0805755438665523,4,13.9031746031746,29.9
2.3,11.7368617210212,27.2211795381849,5.55253977563222,0.0833307821993197,4,13.9,29.9
2.33333333333333,11.7336503873984,27.4076649718706,5.63873149128211,0.0861917156498828,4,13.9,29.9
2.36666666666667,11.7302795370311,27.5970684618036,5.72774398240861,0.089012491126506,4,13.9,29.9
2.4,11.7267481377088,27.7894812897376,5.81939257097072,0.0916485885621112,4,13.9,29.9
2.43333333333333,11.7230555243942,27.9849863664515,5.91336694479227,0.0939743738215473,4,13.9,29.9
2.46666666666667,11.7192015421961,28.1836551553573,6.00930221344479,0.0959352686525152,4,13.9,29.9
2.5,11.715187861535,28.3855468392769,6.10683229029528,0.0975300768504912,4,13.9,29.9
2.53333333333333,11.7110157751948,28.5907094251417,6.20566785039513,0.0988355600998565,4,13.9,29.9
2.56666666666667,11.706687245378,28.7991827634053,6.30559425473191,0.0999264043367756,4,13.9,29.9
2.6,11.7022028783658,29.010999519814,6.40637697861792,0.100782723886012,4,13.9,29.9
2.63333333333333,11.6975633423964,29.2261835126962,6.50774094732406,0.101363968706134,4,13.9,29.9
2.66666666666667,11.6927670194382,29.4447502116933,6.60945394106209,0.101712993738034,4,13.9,29.9
2.7,11.6878099817206,29.6667067313153,6.71125557157126,0.101801630509167,4,13.9,29.9
2.73333333333333,11.6826868012806,29.8920527010799,6.8129716748102,0.10171610323894,4,13.9,29.9
2.76666666666667,11.677392044849,30.1207826224595,6.91444920736027,0.101477532550073,4,13.9,29.9
2.8,11.6719227066891,30.3528865344196,7.01559519010235,0.101145982742083,4,13.9,29.9
2.83333333333333,11.6662751417136,30.5883529919839,7.11639938019703,0.100804190094678,4,13.9,29.9
2.86666666666667,11.6604454276306,30.8271704522875,7.21686036046728,0.100460980270254,4,13.9,29.9
2.9,11.6544317257041,31.0693274927693,7.31698835259388,0.100127992126596,4,13.9,29.9
2.93333333333333,11.6482313186893,31.3148131410566,7.41679378872535,0.0998054361314669,4,13.9,29.9
2.96666666666667,11.6418402824748,31.5636162326838,7.51625639460946,0.0994626058841108,4,13.9,29.9
3,11.6352549662362,31.8157247186045,7.61534988800078,0.0990934933913223,4,13.9,29.9
3.03333333333333,11.6284752912133,32.0711261086964,7.71407080403235,0.0987209160315672,4,13.9,29.9
3.06666666666667,11.6215021486182,32.3298890147652,7.81933241406916,0.105261610036816,4,13.9,29.9
3.1,11.6143324982767,32.5923125787329,7.93274281308642,0.113410399017258,4,13.9,29.9
3.13333333333333,11.606967159169,32.85856234594,8.04835775461852,0.115614941532101,4,13.9,29.9
3.16666666666667,11.5994099197314,33.1286455329206,8.16252390644685,0.114166151828329,4,13.9,29.9
3.2,11.5916638704887,33.4024760373439,8.27318123320158,0.11065732675473,4,13.9,29.9
3.23333333333333,11.5837334096673,33.6799163139255,8.37920952340329,0.106028290201705,4,13.9,29.9
3.26666666666667,11.5756220526197,33.960803733761,8.4802296764528,0.101020153049515,4,13.9,29.9
3.3,11.5673343697642,34.2449729256349,8.57638493834041,0.0961552618876116,4,13.9,29.9
3.33333333333333,11.5588729172501,34.5322669549695,8.66801335559903,0.0916284172586224,4,13.8991319444444,29.9
3.36666666666667,11.5502392844653,34.8225423983605,8.75558154181253,0.0875681862134989,4,13.8965277777778,29.9
3.4,11.5414371479675,35.115672468345,8.83960093835121,0.0840193965386771,4,13.8921875,29.9
3.43333333333333,11.5324685419081,35.4115471271726,8.92056143165357,0.0809604933023582,4,13.8861111111111,29.9
3.46666666666667,11.5233336164149,35.7100718425512,8.99890185948391,0.0783404278303443,4,13.8782986111111,29.9
3.5,11.5140314535562,36.0111655288891,9.07498472080844,0.0760828613245312,4,13.86875,29.9
3.53333333333333,11.5045606794538,36.3147569180763,9.14903955850096,0.0740548376925183,4,13.8574652777778,29.9
3.56666666666667,11.4949198309161,36.6207820131442,9.22130252164543,0.0722629631444676,4,13.8444444444444,29.9
3.6,11.4851084587943,36.9291860469009,9.29207759189814,0.0707750702527115,4,13.8296875,29.9
3.63333333333333,11.4751293087466,37.2399239565125,9.36162043990037,0.0695428480022322,4,13.8131944444444,29.9
3.66666666666667,11.4649840434664,37.5529575360608,9.43008869016709,0.0684682502667169,4,13.7949652777778,29.9
3.7,11.454672767675,37.8682530607599,9.49761136602929,0.0675226758622038,4,13.775,29.9
3.73333333333333,11.4441946728454,38.1857810727099,9.56431356926247,0.0667022032331701,4,13.7532986111111,29.9
3.76666666666667,11.433548513845,38.5055158557161,9.63029231937878,0.0659787501163169,4,13.7298611111111,29.9
3.8,11.422732920305,38.8274344129326,9.69561575446733,0.0653234350885459,4,13.7046875,29.9
3.83333333333333,11.4117465566253,39.1515155406831,9.76031879748833,0.0647030430210034,4,13.6777777777778,29.9
