Time,x_ego,y_ego,velocity,acceleration,action,x_ped,y_ped
0,11.8,15.9,7,0,1,15.5,29.9
0.0333333333333333,11.8,16.1332703793943,6.99615577953002,-0.00384422046998356,1,15.5,29.9
0.0666666666666667,11.8,16.3664065988113,6.99196947109348,-0.00418630843653833,1,15.5,29.9
0.1,11.8,16.5994007552791,6.98769498718995,-0.00427448390352669,1,15.5,29.9
0.133333333333333,11.8,16.8322537852842,6.9834976545359,-0.00419733265404787,1,15.5,29.9
0.166666666666667,11.8,17.0649678802301,6.97935585456763,-0.00414179996826913,1,15.5,29.9
0.2,11.8,17.2975446186632,6.97525409491249,-0.00410175965514537,1,15.5,29.9
0.233333333333333,11.8,17.5299851399444,6.97118127319767,-0.00407282171482137,1,15.5,29.9
0.266666666666667,11.8,17.7622902687052,6.96712943294736,-0.00405184025031069,1,15.5,29.9
0.3,11.8,17.9944606040335,6.96309287213007,-0.00403656081728965,1,15.5,29.9
0.333333333333333,11.8,18.2264965833863,6.95906750439986,-0.00402536773020401,1,15.5,29.9
0.366666666666667,11.8,18.4583985283897,6.95505040137947,-0.00401710302039238,1,15.5,29.9
0.4,11.8,18.6901666776599,6.95103946463339,-0.00401093674607722,1,15.5,29.9
0.433333333333333,11.8,18.9218012103233,6.94703319054231,-0.00400627409108711,1,15.5,29.9
0.466666666666667,11.8000107327841,19.1533022628287,6.94303055915612,-0.00400263138618584,1,15.5,29.9
0.5,11.8000746210192,19.3846699397096,6.93903114937299,-0.00399940978313573,1,15.5,29.9
0.533333333333333,11.8002091194029,19.6159043178926,6.93503426384521,-0.00399688552777366,1,15.5,29.9
0.566666666666667,11.8003969135527,19.84700545583,6.93103875997819,-0.00399550386702252,1,15.5,29.9
0.6,11.800598736314,20.0779734110981,6.92704396381513,-0.00399479616305953,1,15.5,29.9
0.633333333333333,11.8007618987632,20.3088082533461,6.92305037118463,-0.00399359263050325,1,15.5,29.9
0.666666666666667,11.800842215596,20.539510053294,6.91905898146827,-0.0039913897163526,1,15.5,29.9
0.7,11.8008182090062,20.7700788586779,6.91506988428245,-0.00398909718582718,1,15.5,29.9
0.733333333333333,11.800688435246,21.0005146863235,6.911082224509,-0.00398765977344517,1,15.5,29.9
0.766666666666667,11.800469442426,21.2308175333428,6.90709490532037,-0.00398731918863504,1,15.5,29.9
0.8,11.8001882270644,21.4609874004082,6.90310743997151,-0.0039874653488523,1,15.5,29.9
0.833333333333333,11.7998733629613,21.6910243082783,6.8991200189282,-0.00398742104330996,1,15.5,29.9
0.866666666666667,11.799550345288,21.9209282991282,6.89513320885967,-0.00398681006853163,1,15.5,29.9
0.9,11.7992357609859,22.1506994251001,6.89114747884252,-0.0039857300171553,1,15.5,29.9
0.933333333333333,11.7989386138209,22.3803377366928,6.88716296157717,-0.00398451726534965,1,15.5,29.9
0.966666666666667,11.7986632149741,22.6098432776628,6.88317960375961,-0.00398335781755321,1,15.5,29.9
1,11.7984112174612,22.8392160847643,6.8791973033036,-0.00398230045600911,1,15.5,29.9
1.03333333333333,11.798182734848,23.0684561894944,6.875215975036,-0.00398132826760644,1,15.5,29.9
1.06666666666667,11.7979767770675,23.2975636199984,6.87123556456045,-0.00398041047554454,1,15.5,29.9
1.1,11.797791327153,23.5265384024844,6.86725604077377,-0.00397952378667998,1,15.5,29.9
1.13333333333333,11.7976233526032,23.7553805621559,6.86327738542478,-0.00397865534898934,1,15.5,29.9
1.16666666666667,11.7974689008087,23.9840901237862,6.85929958605879,-0.00397779936599107,1,15.5,29.9
1.2,11.7973233332523,24.2126671120515,6.85532263407054,-0.00397695198825598,1,15.5,29.9
1.23333333333333,11.7971819749267,24.4411115636801,6.85134780098379,-0.00397483308675017,1,15.5,29.9
1.26666666666667,11.7970398421175,24.6694236268168,6.84738051302531,-0.00396728795848134,1,15.5,29.9
1.3,11.7968894061038,24.8976036746884,6.84342861265111,-0.00395190037419901,1,15.5,29.9
1.33333333333333,11.796720866458,25.1256523530104,6.83950045636224,-0.00392815628887,1,15.5,29.9
1.36666666666667,11.7965208085999,25.3535705693271,6.83560357687514,-0.00389687948709572,1,15.5,29.9
1.4,11.7962728162649,25.5813594491999,6.83174395898304,-0.00385961789210132,1,15.5,29.9
1.43333333333333,11.7959571929525,25.8090202689672,6.82792547323954,-0.00381848574349863,1,15.5,29.9
1.46666666666667,11.7955552410115,26.0365543789478,6.82414965269147,-0.00377582054806958,1,15.5,29.9
1.5,11.7950510890181,26.2639634165914,6.82047762023116,-0.00367203246031433,1,15.5,29.9
1.53333333333333,11.7944348120612,26.4912722960122,6.81878254095553,-0.00169507927562407,1,15.5,29.9
1.56666666666667,11.7937037479275,26.7186059389587,6.82230115160868,0.00351861065314463,1,15.5,29.9
1.6,11.7928601041986,26.9461581148432,6.83194023773269,0.00963908612400832,1,15.5,29.9
1.63333333333333,11.7919085340604,27.174131114547,6.84751600843739,0.0155757707047046,1,15.5,29.9
1.66666666666667,11.7908553199899,27.4027155893519,6.86855676718856,0.0210407587511661,4,15.5,29.9
1.7,11.7897100747228,27.6320832155866,6.89443050857369,0.0258737413851371,4,15.5,29.9
1.73333333333333,11.7884847269828,27.8623856935579,6.9245747673207,0.0301442587470078,4,15.5,29.9
1.76666666666667,11.7871919269492,28.0937551206074,6.95836373128223,0.0337889639615323,4,15.5,29.9
1.8,11.785843329097,28.3263029855717,6.99520708081753,0.0368433495352969,4,15.5,29.9
1.83333333333333,11.7844462040876,28.5601223329905,7.03458887751511,0.0393817966975742,4,15.5,29.9
1.86666666666667,11.7830037408929,28.7952901860775,7.07606403798782,0.041475160472717,4,15.5,29.9
1.9,11.7815162244755,29.031869786672,7.11925032680047,0.0431862888126524,4,15.5,29.9
1.93333333333333,11.7799819840832,29.2699125630628,7.1638206924636,0.0445703656631204,4,15.5,29.9
1.96666666666667,11.7783981050215,29.5094598608233,7.20949667747702,0.0456759850134265,4,15.5,29.9
2,11.7767609496859,29.7505444672798,7.25604284430089,0.0465461668238731,4,15.5,29.9
2.03333333333333,11.7750665464961,29.9931919948465,7.30326385417959,0.0472210098786929,4,15.5,29.9
2.06666666666667,11.7733117288646,30.2374221061247,7.35099543416299,0.0477315799834015,4,15.5,29.9
2.1,11.7714962539623,30.4832493828215,7.39909585018538,0.0481004160223888,4,15.5,29.9
2.13333333333333,11.7696195406104,30.7306840752912,7.44744686379894,0.0483510136135585,4,15.5,29.9
2.16666666666667,11.7676801892561,30.9797327726672,7.49594395042121,0.048497086622274,4,15.5,29.9
2.2,11.7656764755386,31.2303982437817,7.54445396503243,0.048510014611221,4,15.5,29.9
2.23333333333333,11.7636076309258,31.4826783377637,7.59282760917474,0.0483736441423064,4,15.5,29.9
2.26666666666667,11.7614769282814,31.7365665453417,7.64095278369155,0.0481251745168079,4,15.5,29.9
2.3,11.7592908188004,31.9920534970461,7.68877370155629,0.0478209178647431,4,15.5,29.9
2.33333333333333,11.7570575616149,32.2491288750278,7.73627666012104,0.0475029585647473,4,15.5,29.9
2.36666666666667,11.7547851476534,32.5077818445289,7.78344153447021,0.0471648743491704,4,15.5,29.9
2.4,11.7524778217067,32.768000486361,7.8302225511741,0.0467810167038918,4,15.5,29.9
2.43333333333333,11.7501366110115,33.0297712031622,7.87657536891357,0.0463528177394688,4,15.5,29.9
2.46666666666667,11.7477606546018,33.2930793050654,7.92247846559568,0.0459030966821175,4,15.5,29.9
2.5,11.74534817073,33.5579095982084,7.96792198138086,0.0454435157851725,4,15.5,29.9
2.53333333333333,11.7428970690101,33.8242466839384,8.01290359054594,0.0449816091650854,4,15.5,29.9
2.56666666666667,11.740405276399,34.0920751794607,8.05742536942363,0.0445217788776855,4,15.5,29.9
2.6,11.7378708738276,34.3613796586408,8.10148110104756,0.0440557316239278,4,15.5,29.9
2.63333333333333,11.7352921305044,34.6321445146385,8.14507039440043,0.0435892933528716,4,15.5,29.9
2.66666666666667,11.732664681975,34.9043543353062,8.18820557858945,0.0431351841890262,4,15.5,29.9
2.7,11.7299725143535,35.1779941582434,8.2309102013019,0.0427046227124475,4,15.5,29.9
2.73333333333333,11.7271886879857,35.4530500501538,8.27322773488095,0.0423175335790518,4,15.5,29.9
2.76666666666667,11.7242739406006,35.7295093542038,8.31519738136047,0.0419696464795134,4,15.5,29.9
2.8,11.7211823170695,36.0073604427211,8.35684938457039,0.0416520032099221,4,15.5,29.9
2.83333333333333,11.7178708716849,36.2865924391134,8.39819757797205,0.041348193401662,4,15.5,29.9
2.86666666666667,11.7143093883365,36.5671945419152,8.43923239709341,0.041034819121359,4,15.5,29.9
2.9,11.7104841840538,36.849155850102,8.47995092212164,0.0407185250282271,4,15.5,29.9
2.93333333333333,11.7063923631686,37.1324656236656,8.52035747802131,0.0404065558996756,4,15.5,29.9
2.96666666666667,11.7020370951092,37.4171134062579,8.56045774772272,0.0401002697014121,4,15.5,29.9
3,11.6974273072827,37.7030887852756,8.60024038396806,0.0397826362453344,4,15.5,29.9
3.03333333333333,11.6925762035428,37.9903809995821,8.63969533424999,0.0394549502819324,4,15.5,29.9
3.06666666666667,11.6875031610508,38.2789792771636,8.6788219603305,0.0391266260805043,4,15.5,29.9
3.1,11.6822348102543,38.5688730012029,8.71761833271337,0.0387963723828744,4,15.5,29.9
3.13333333333333,11.6768012035175,38.8600515398422,8.75607832318112,0.0384599904677536,4,15.5,29.9
3.16666666666667,11.6712298572231,39.1525037831041,8.79417824146729,0.0380999182861643,4,15.5,29.9
