Time,x_ego,y_ego,velocity,acceleration,action,x_ped,y_ped
0,11.8,8.9,7,0,1,15.5,29.9
0.0333333333333333,11.8,9.13327037939431,6.99615577953002,-0.00384422046998356,1,15.5,29.9
0.0666666666666667,11.8,9.36640659881126,6.99196947109348,-0.00418630843653833,1,15.5,29.9
0.1,11.8,9.59940075527911,6.98769498718995,-0.00427448390352669,1,15.5,29.9
0.133333333333333,11.8,9.83225378528415,6.9834976545359,-0.00419733265404787,1,15.5,29.9
0.166666666666667,11.8,10.0649678802301,6.97935585456763,-0.00414179996826913,1,15.5,29.9
0.2,11.8,10.2975446186632,6.97525409491249,-0.00410175965514537,1,15.5,29.9
0.233333333333333,11.8,10.5299851399444,6.97118127319767,-0.00407282171482137,1,15.5,29.9
0.266666666666667,11.8,10.7622902687052,6.96712943294736,-0.00405184025031069,1,15.5,29.9
0.3,11.8,10.9944606040335,6.96309287213007,-0.00403656081728965,1,15.5,29.9
0.333333333333333,11.8,11.2264965833863,6.95906750439986,-0.00402536773020401,1,15.5,29.9
0.366666666666667,11.8,11.4583985283897,6.95505040137947,-0.00401710302039238,1,15.5,29.9
0.4,11.8,11.6901666776599,6.95103946463339,-0.00401093674607722,1,15.5,29.9
0.433333333333333,11.8,11.9218012103233,6.94703319054231,-0.00400627409108711,1,15.5,29.9
0.466666666666667,11.799999161493,12.1533022628709,6.94303050208651,-0.00400268845579177,1,15.5,29.9
0.5,11.7999922773443,12.3846699412208,6.93903063598811,-0.00399986609840219,1,15.5,29.9
0.533333333333333,11.7999671059457,12.6159043291622,6.93503309541477,-0.00399754057334256,1,15.5,29.9
0.566666666666667,11.7999037914382,12.8470054934078,6.9310376524089,-0.00399544300586641,1,15.5,29.9
0.6,11.7997760881545,13.0779734845438,6.92704439812528,-0.0039932542836274,1,15.5,29.9
0.633333333333333,11.799550612607,13.3088083324074,6.92305367307988,-0.00399072504539344,1,15.5,29.9
0.666666666666667,11.7991969001839,13.5395100381837,6.91906557700012,-0.00398809607976336,1,15.5,29.9
0.7,11.7986950379013,13.7700785706501,6.91507973790808,-0.00398583909204042,1,15.5,29.9
0.733333333333333,11.7980349082533,14.0005138700752,6.91109542801148,-0.00398430989659637,1,15.5,29.9
0.766666666666667,11.7972155365041,14.2308158609853,6.90711182227424,-0.00398360573724332,1,15.5,29.9
0.8,11.7962419024519,14.4609844671667,6.90312835776484,-0.00398346450940146,1,15.5,29.9
0.833333333333333,11.7951219737141,14.6910196233892,6.89914479549653,-0.00398356226830732,1,15.5,29.9
0.866666666666667,11.7938648085766,14.9209212818759,6.89516114462558,-0.00398365087094898,1,15.5,29.9
0.9,11.7924802599899,15.1506894163762,6.89117734814616,-0.00398379647942004,1,15.5,29.9
0.933333333333333,11.7909801955957,15.3803240286405,6.88719351811219,-0.00398383003397029,1,15.5,29.9
0.966666666666667,11.7893757645021,15.6098251401651,6.88320978735777,-0.00398373075442571,1,15.5,29.9
1,11.7876793065995,15.8391927971672,6.87922615676808,-0.00398363058968343,1,15.5,29.9
1.03333333333333,11.7859030292523,16.0684270640432,6.8752429392345,-0.00398321753357767,1,15.5,29.9
1.06666666666667,11.7840551593082,16.297527999779,6.87126054650889,-0.00398239272561263,1,15.5,29.9
1.1,11.7821399090482,16.5264956483892,6.86727921713309,-0.00398132937580264,1,15.5,29.9
1.13333333333333,11.7801592481016,16.7553300456773,6.86329939339907,-0.00397982373401451,1,15.5,29.9
1.16666666666667,11.7781155969297,16.9840313007559,6.85932542199871,-0.00397397140036571,1,15.5,29.9
1.2,11.7760093611714,17.2125997306609,6.85536588708334,-0.0039595349153716,1,15.5,29.9
1.23333333333333,11.7738389645985,17.4410359446172,6.85143040166126,-0.00393548542207522,1,15.5,29.9
1.26666666666667,11.7716017328882,17.6693408478547,6.84752760273116,-0.00390279893010437,1,15.5,29.9
1.3,11.7692946147725,17.8975155949851,6.84366406039896,-0.00386354233219954,1,15.5,29.9
1.33333333333333,11.7669147061009,18.1255615177084,6.83984389769634,-0.00382016270262309,1,15.5,29.9
1.36666666666667,11.764459575454,18.3534800442048,6.83606857774241,-0.003775319953923,1,15.5,29.9
1.4,11.7619274011797,18.5812741303181,6.8326010524985,-0.00346752524390936,1,15.5,29.9
1.43333333333333,11.7593165499311,18.8089953664343,6.8324370546846,-0.000163997813904082,1,15.5,29.9
1.46666666666667,11.7566248644379,19.0368055477576,6.83819205311133,0.00575499842672844,1,15.5,29.9
1.5,11.7538500175778,19.2649128630012,6.85030480995783,0.0121127568465003,1,15.5,29.9
1.53333333333333,11.7509897535153,19.4935254872817,6.86850011143004,0.0181953014722076,4,15.4777777777778,29.9
1.56666666666667,11.7480418760793,19.7228374782265,6.89223316765716,0.0237330562271287,4,15.4111111111111,29.9
1.6,11.7450041930348,19.9530241082526,6.92094312581269,0.0287099581555266,4,15.3,29.9
1.63333333333333,11.7418744757341,20.1842404316284,6.95397317240103,0.0330300465883404,4,15.1698412698413,29.9
1.66666666666667,11.7386504614872,20.4166198458708,6.99070357498603,0.0367304025849995,4,15.0460317460317,29.9
1.7,11.7353298454665,20.6502765077993,7.03059974880757,0.0398961738215418,4,14.9285714285714,29.9
1.73333333333333,11.7319102872753,20.8853080511952,7.07320281626787,0.0426030674602931,4,14.8174603174603,29.9
1.76666666666667,11.7283894290405,21.121797923864,7.11811913395699,0.0449163176891281,4,14.7126984126984,29.9
1.8,11.7247649171103,21.3598173260289,7.16500342915293,0.0468842951959321,4,14.6142857142857,29.9
1.83333333333333,11.7210344246746,21.5994265684821,7.21354926050858,0.0485458313556526,4,14.5222222222222,29.9
1.86666666666667,11.7171956661405,21.8406764047357,7.26348605575131,0.049936795242731,4,14.4365079365079,29.9
1.9,11.7132464080208,22.0836089848872,7.31456968533502,0.0510836295837107,4,14.3571428571429,29.9
1.93333333333333,11.7091853517725,22.3282589212105,7.36659202507048,0.0520223397354629,4,14.284126984127,29.9
1.96666666666667,11.7050149461849,22.5746545346341,7.41937866695274,0.0527866418822542,4,14.2174603174603,29.9
2,11.7007405215372,22.8228188579235,7.47278300417746,0.0534043372247233,4,14.1571428571429,29.9
2.03333333333333,11.6963681599822,23.0727704454172,7.52668063984686,0.0538976356694008,4,14.1031746031746,29.9
2.06666666666667,11.6919008547787,23.3245239373053,7.58096467638294,0.0542840365360746,4,14.0555555555556,29.9
2.1,11.6873387084109,23.5780908765242,7.63556396731049,0.0545992909275554,4,14.0142857142857,29.9
2.13333333333333,11.682680062691,23.8334812974281,7.69046252043221,0.0548985531217197,4,13.9793650793651,29.9
2.16666666666667,11.6779223462573,24.0907056826362,7.74570494965536,0.0552424292231457,4,13.9507936507936,29.9
2.2,11.6730626092643,24.3497771044246,7.80140833351248,0.0557033838571197,4,13.9285714285714,29.9
2.23333333333333,11.6680977679507,24.6107146727201,7.85782901245104,0.0564206789385597,4,13.9126984126984,29.9
2.26666666666667,11.6630246332719,24.8735484343028,7.91535433271652,0.0575253202654835,4,13.9031746031746,29.9
2.3,11.6578398657422,25.1383222514404,7.97440918385178,0.0590548511352607,4,13.9,29.9
2.33333333333333,11.6525399476064,25.4050934290857,8.03536269103605,0.0609535071842711,4,13.9,29.9
2.36666666666667,11.6471212031058,25.6739298911839,8.09847600121439,0.0631133101783377,4,13.9,29.9
2.4,11.6415798651018,25.9449060624162,8.16388355902763,0.0654075578132449,4,13.9,29.9
2.43333333333333,11.6359121458706,26.2180996666661,8.23166015248572,0.067776593458083,4,13.9,29.9
2.46666666666667,11.6301142782692,26.4935905336164,8.30185915105851,0.070198998572792,4,13.9,29.9
2.5,11.6241825443036,26.7714597261824,8.3744952671536,0.0726361160950955,4,13.9,29.9
2.53333333333333,11.6181133048892,27.0517878204542,8.44952392704503,0.07502865989143,4,13.9,29.9
2.56666666666667,11.611903019198,27.3346528635959,8.52683536051394,0.0773114334689069,4,13.9,29.9
2.6,11.6055482634757,27.6201277514264,8.60622656446951,0.0793912039555682,4,13.9,29.9
2.63333333333333,11.5990457506725,27.9082773813537,8.68743214562545,0.0812055811559436,4,13.9,29.9
2.66666666666667,11.5923923201785,28.1991574753829,8.77017029817183,0.0827381525463728,4,13.9,29.9
2.7,11.5855849207784,28.4928142294475,8.8541526243444,0.0839823261725741,4,13.9,29.9
2.73333333333333,11.5786205986361,28.7892843826698,8.93910402121332,0.0849513968689184,4,13.9,29.9
2.76666666666667,11.5714974925281,29.0885957605492,9.02475863662448,0.0856546154111655,4,13.9,29.9
2.8,11.5642169851329,29.3907672125831,9.11083809901993,0.0860794623954515,4,13.9,29.9
2.83333333333333,11.5567795319551,29.6958081779886,9.19706167624703,0.0862235772271003,4,13.9,29.9
2.86666666666667,11.54918415966,30.0037190743691,9.28317543032047,0.0861137540734376,4,13.9,29.9
2.9,11.5414291174447,30.3144924715398,9.36896317003713,0.0857877397166558,4,13.9,29.9
2.93333333333333,11.5335123595236,30.6281142671771,9.4542401541458,0.0852769841086687,4,13.9,29.9
2.96666666666667,11.525431849045,30.9445645754649,9.53884390788862,0.0846037537428241,4,13.9,29.9
3,11.5171857020466,31.2638186773179,9.62264925587261,0.0838053479839935,4,13.9,29.9
3.03333333333333,11.5087733412083,31.5858482104528,9.70555669818488,0.0829074423122673,4,13.9,29.9
3.06666666666667,11.5001978315238,31.91062114007,9.78742010652416,0.0818634083392737,4,13.9,29.9
3.1,11.4914611517539,32.2380997645448,9.86808367025175,0.0806635637275974,4,13.9,29.9
3.13333333333333,11.4825636067048,32.5682436366434,9.94754527924441,0.0794616089926539,4,13.9,29.9
3.16666666666667,11.4735044999773,32.9010133297851,10.025836615694,0.0782913364495812,4,13.9,29.9
3.2,11.4642827170469,33.2363692625888,10.102923494808,0.0770868791140291,4,13.9,29.9
3.23333333333333,11.4548970789744,33.5742711763256,10.17881652716,0.0758930323519351,4,13.9,29.9
3.26666666666667,11.4453464546854,33.9146802008236,10.2535818157335,0.0747652885735537,4,13.9,29.9
3.3,11.4356297729012,34.2575601896348,10.3273125770796,0.0737307613461198,4,13.9,29.9
3.33333333333333,11.4257459961917,34.6028780075479,10.4000877490116,0.0727751719319762,4,13.8991319444444,29.9
3.36666666666667,11.4156940986828,34.9506028066827,10.4719753228101,0.0718875737984845,4,13.8965277777778,29.9
3.4,11.4054730162382,35.3007063906063,10.5430654129175,0.0710900901074307,4,13.8921875,29.9
3.43333333333333,11.3950827622186,35.6531638927427,10.6134691371051,0.0704037241875923,4,13.8861111111111,29.9
3.46666666666667,11.3845267243118,36.0079547381154,10.6833202692258,0.0698511321206716,4,13.8782986111111,29.9
3.5,11.3738067538382,36.3650625214214,10.7527345319358,0.0694142627100582,4,13.86875,29.9
3.53333333333333,11.3629228253974,36.724474274806,10.8218061603628,0.0690716284269879,4,13.8574652777778,29.9
3.56666666666667,11.3518739326503,37.0861797302657,10.8905991585596,0.0687929981968161,4,13.8444444444444,29.9
3.6,11.3406587092878,37.4501696247858,10.959107346361,0.0685081878013278,4,13.8296875,29.9
3.63333333333333,11.3292770722589,37.8164333562512,11.0272503059143,0.0681429595532936,4,13.8131944444444,29.9
3.66666666666667,11.3177329496784,38.1849556239202,11.0948002655937,0.0675499596793951,4,13.7949652777778,29.9
3.7,11.3060291338963,38.555709648124,11.1613040778809,0.066503812287273,4,13.775,29.9
3.73333333333333,11.2941670761622,38.9286516181382,11.2262107867566,0.064906708875716,4,13.7532986111111,29.9
