Time,x_ego,y_ego,velocity,acceleration,action,x_ped,y_ped
0,11.8,15.9,7,0,1,15.5,29.9
0.0333333333333333,11.8000141006976,16.1332703793208,6.99615587777444,-0.00384412222555586,1,15.5,29.9
0.0666666666666667,11.8001023288606,16.3664065959295,6.9919705559947,-0.00418532177974207,1,15.5,29.9
0.1,11.800311635577,16.5994007294785,6.98769862395286,-0.00427193204184206,1,15.5,29.9
0.133333333333333,11.8006633719116,16.8322536720612,6.9835050926189,-0.00419353133396161,1,15.5,29.9
0.166666666666667,11.801162616624,17.0649675447977,6.97936740085215,-0.00413769176674972,1,15.5,29.9
0.2,11.8018021911801,17.2975438450167,6.97526902817595,-0.00409837267619828,1,15.5,29.9
0.233333333333333,11.8025677567723,17.5299836394624,6.9711982860912,-0.00407074208475411,1,15.5,29.9
0.266666666666667,11.8034412523711,17.7622877046291,6.96714697488144,-0.00405131120975266,1,15.5,29.9
0.3,11.8043931216111,17.9944566446772,6.96310810955662,-0.00403886532482023,1,15.5,29.9
0.333333333333333,11.8053690099661,18.2264910073944,6.95907827186755,-0.00402983768907017,1,15.5,29.9
0.366666666666667,11.8063276015405,18.4583912554646,6.95505685053624,-0.00402142133131722,1,15.5,29.9
0.4,11.8072459687441,18.6901577437759,6.95104277452355,-0.00401407601268566,1,15.5,29.9
0.433333333333333,11.8081139728978,18.9217907254993,6.9470346223206,-0.00400815220295225,1,15.5,29.9
0.466666666666667,11.80892871227,19.1532903734226,6.94303096294139,-0.00400365937920721,1,15.5,29.9
0.5,11.8096859067561,19.3846568190286,6.93903066045653,-0.00400030248485628,1,15.5,29.9
0.533333333333333,11.810370760238,19.6158901930111,6.93503315776292,-0.00399750269361565,1,15.5,29.9
0.566666666666667,11.8109586424932,19.8469906285848,6.93103848755142,-0.00399467021150102,1,15.5,29.9
0.6,11.8114140177981,20.0779582605842,6.92704727108292,-0.00399121646849476,1,15.5,29.9
0.633333333333333,11.8116972053109,20.3087931925157,6.92306016120446,-0.00398710987846229,1,15.5,29.9
0.666666666666667,11.8117790193131,20.5394954428506,6.91907669950312,-0.00398346170133657,1,15.5,29.9
0.7,11.811649150605,20.7700649279993,6.91509528712778,-0.00398141237534499,1,15.5,29.9
0.733333333333333,11.8113127799098,21.0005014968361,6.91111381866385,-0.00398146846392855,1,15.5,29.9
0.766666666666667,11.8107885386108,21.2308049751025,6.90713068998872,-0.00398312867513173,1,15.5,29.9
0.8,11.8101006451117,21.4609752159666,6.90314530179764,-0.00398538819107497,1,15.5,29.9
0.833333333333333,11.8092767038486,21.6910121268087,6.8991577403052,-0.00398756149244583,1,15.5,29.9
0.866666666666667,11.808345944089,21.9209156816811,6.8951684536795,-0.00398928662569453,1,15.5,29.9
0.9,11.8073383733361,22.1506859207994,6.89117850660956,-0.00398994706994227,1,15.5,29.9
0.933333333333333,11.8062778423015,22.3803229293713,6.88718913630688,-0.00398937030268343,1,15.5,29.9
0.966666666666667,11.8051811732907,22.6098268096939,6.88320119837814,-0.0039879379287413,1,15.5,29.9
1,11.8040571391713,22.8391976554379,6.8792151234249,-0.003986074953235,1,15.5,29.9
1.03333333333333,11.8029084398223,23.068435539676,6.87523091996654,-0.00398420345835859,1,15.5,29.9
1.06666666666667,11.8017338860413,23.2975405133596,6.87124842417009,-0.00398249579645604,1,15.5,29.9
1.1,11.8005298562108,23.5265126080177,6.86726744144493,-0.00398098272515668,1,15.5,29.9
1.13333333333333,11.7992912275154,23.7553518395377,6.86328780634708,-0.00397963509784827,1,15.5,29.9
1.16666666666667,11.798012009847,23.9840582117893,6.85930939679321,-0.00397840955386997,1,15.5,29.9
1.2,11.7966858594913,24.2126317199221,6.85533212797075,-0.00397726882246285,1,15.5,29.9
1.23333333333333,11.7953065650953,24.4410723535314,6.8513559397886,-0.0039761881821514,1,15.5,29.9
1.26666666666667,11.7938685171309,24.66938009983,6.84738078444733,-0.00397515534126569,1,15.5,29.9
1.3,11.7923671176615,24.8975549467612,6.84340661705295,-0.00397416739438672,1,15.5,29.9
1.33333333333333,11.7907990683857,25.1255968857807,6.83943339051834,-0.0039732265346073,1,15.5,29.9
1.36666666666667,11.7891624878689,25.3535059139421,6.83546105506004,-0.003972335458303,1,15.5,29.9
1.4,11.7874568418251,25.58128203497,6.83148956169177,-0.00397149336826885,1,15.5,29.9
1.43333333333333,11.7856827088426,25.8089252591868,6.82751886810936,-0.00397069358241087,1,15.5,29.9
1.46666666666667,11.7838414354267,26.0364356023987,6.82354894463419,-0.00396992347516534,1,15.5,29.9
1.5,11.7819347506655,26.2638130840624,6.81957977793045,-0.00396916670373937,1,15.5,29.9
1.53333333333333,11.7799644098855,26.4910577251722,6.81561137115022,-0.00396840678023391,1,15.4972222222222,29.9
1.56666666666667,11.7779327036923,26.7181695519719,6.81164362068382,-0.0039677504663933,1,15.4888888888889,29.9
1.6,11.7758448973109,26.9451486150557,6.80767638993105,-0.00396723075277361,1,15.475,29.9
1.63333333333333,11.7737078300933,27.1719949825074,6.80370977556655,-0.00396661436449897,1,15.4555555555556,29.9
1.66666666666667,11.7715259587148,27.3987087100492,6.79974397646404,-0.00396579910251127,1,15.4305555555556,29.9
1.7,11.7693011891323,27.6252898363393,6.7957791093307,-0.00396486713334454,1,15.4,29.9
1.73333333333333,11.7670337342363,27.8517383869182,6.79181522386744,-0.0039638854632571,1,15.3666666666667,29.9
1.76666666666667,11.7647228567924,28.0780543786022,6.78785232547945,-0.00396289838798314,1,15.3333333333333,29.9
1.8,11.7623674182502,28.3042378233129,6.78389039549967,-0.0039619299797824,1,15.3,29.9
1.83333333333333,11.759966220997,28.5302887308258,6.77992940575946,-0.00396098974021619,1,15.2666666666667,29.9
1.86666666666667,11.7575181769637,28.7562071103753,6.77596932776887,-0.00396007799058751,1,15.2333333333333,29.9
1.9,11.7550223574548,28.9819929713613,6.77201013769151,-0.0039591900773539,1,15.2,29.9
1.93333333333333,11.7524779810305,29.2076463235305,6.76805181821916,-0.00395831947235692,1,15.1666666666667,29.9
1.96666666666667,11.7498843846023,29.4331671769813,6.76409435828264,-0.00395745993651619,1,15.1333333333333,29.9
2,11.7472410048952,29.6585555422297,6.76013775148796,-0.00395660679467724,1,15.1,29.9
2.03333333333333,11.7445473794866,29.8838114304302,6.75618199411698,-0.00395575737098675,1,15.0666666666667,29.9
2.06666666666667,11.7418031631453,30.1089348537219,6.7522270833675,-0.00395491074948229,1,15.0333333333333,29.9
2.1,11.7390081481573,30.333925825597,6.74827301623603,-0.00395406713146151,1,15,29.9
2.13333333333333,11.7361622765397,30.5587843611668,6.74431978915127,-0.00395322708476531,1,14.9666666666667,29.9
2.16666666666667,11.7332656358309,30.7835104772308,6.74036739822809,-0.00395239092317912,1,14.9333333333333,29.9
2.2,11.7303184360983,31.0081041921087,6.73641583987312,-0.00395155835497096,1,14.9,29.9
2.23333333333333,11.7273209716431,31.2325655252644,6.73246511143857,-0.00395072843455058,1,14.8666666666667,29.9
2.26666666666667,11.7242735749175,31.4568944967963,6.72851521167553,-0.00394989976303606,1,14.8333333333333,29.9
2.3,11.7211765716245,31.6810911269019,6.72456614084853,-0.00394907082700424,1,14.8,29.9
2.33333333333333,11.718030244917,31.9051554354153,6.72061790050016,-0.00394824034836549,1,14.7666666666667,29.9
2.36666666666667,11.7148348137644,32.1290874414937,6.71667049295983,-0.00394740754033585,1,14.7333333333333,29.9
2.4,11.7115904269351,32.3528871634889,6.71272392074708,-0.00394657221274564,1,14.7,29.9
2.43333333333333,11.7082971706674,32.5765546189923,6.70877818602323,-0.00394573472384874,1,14.6666666666667,29.9
2.46666666666667,11.7049550857152,32.8000898250151,6.70483329020531,-0.00394489581792534,1,14.6333333333333,29.9
2.5,11.7015641884318,33.023492798238,6.70088923379677,-0.00394405640854067,1,14.6,29.9
2.53333333333333,11.6981244908634,33.2467635552687,6.69694601642957,-0.00394321736719938,1,14.5666666666667,29.9
2.56666666666667,11.694636016131,33.4699021128521,6.69300363706706,-0.00394237936251152,1,14.5333333333333,29.9
2.6,11.6910988072011,33.6929084880017,6.68906209429313,-0.00394154277392822,1,14.5,29.9
2.63333333333333,11.6875129289641,33.9157826980436,6.6851213866101,-0.00394070768302868,1,14.4666666666667,29.9
2.66666666666667,11.6838784649672,34.1385247605844,6.68118151268186,-0.0039398739282408,1,14.4333333333333,29.9
2.7,11.6801955109508,34.3611346934294,6.67724247148382,-0.00393904119803601,1,14.4,29.9
2.73333333333333,11.6764641674867,34.5836125144821,6.67330426234936,-0.00393820913446241,1,14.3666666666667,29.9
2.76666666666667,11.6726845336235,34.8059582416513,6.66936688492723,-0.0039373774221243,1,14.3333333333333,29.9
2.8,11.6688567027272,35.0281718927876,6.66543033908086,-0.00393654584637471,1,14.3,29.9
2.83333333333333,11.6649807609013,35.2502534856557,6.66149462476599,-0.00393571431487061,1,14.2666666666667,29.9
2.86666666666667,11.6610567876724,35.4722030379409,6.65755974191965,-0.00393488284634014,1,14.2333333333333,29.9
2.9,11.6570848581832,35.6940205672809,6.65362569038266,-0.00393405153699167,1,14.2,29.9
2.93333333333333,11.6530650459664,35.9157060913075,6.64969246986503,-0.00393322051762635,1,14.1666666666667,29.9
2.96666666666667,11.6489974254683,36.1372596276877,6.6457600799515,-0.0039323899135324,1,14.1333333333333,29.9
3,11.6448820737541,36.3586811941525,6.64182852013584,-0.00393155981565751,1,14.1,29.9
3.03333333333333,11.640718266675,36.5799707945271,6.63789789346578,-0.00393062667006383,1,14.0666666666667,29.9
3.06666666666667,11.6365026406263,36.8011283855051,6.63396823830603,-0.00392965515974808,1,14.0333333333333,29.9
3.1,11.6322317347883,37.022153919024,6.63003957550544,-0.00392866280059412,1,14,29.9
3.13333333333333,11.6279008936311,37.2430473222521,6.6261118897427,-0.00392768576273106,1,13.9666666666667,29.9
3.16666666666667,11.6235062359395,37.4638085321362,6.62218518090754,-0.00392670883516555,1,13.9333333333333,29.9
3.2,11.61904309404,37.684437467189,6.61825942223814,-0.00392575866939548,1,13.9,29.9
3.23333333333333,11.6145086952449,37.9049340768774,6.61433448100308,-0.00392494123506815,1,13.8666666666667,29.9
3.26666666666667,11.6099022994758,38.1252983466198,6.61041026855036,-0.00392421245271102,1,13.8333333333333,29.9
3.3,11.6052244675372,38.3455302864255,6.60648673906656,-0.00392352948380648,1,13.8,29.9
3.33333333333333,11.6004772878624,38.5656299373689,6.60256374811171,-0.00392299095484816,1,13.7666666666667,29.9
3.36666666666667,11.595666567365,38.7855974177358,6.5986411327119,-0.00392261539980687,1,13.7333333333333,29.9
3.4,11.5908008305431,39.0054329080281,6.5947188602853,-0.00392227242660415,1,13.7,29.9
3.43333333333333,11.5858899948022,39.2251366271603,6.59079699796368,-0.00392186232161418,1,13.6666666666667,29.9
3.46666666666667,11.580944289239,39.4447088108648,6.58687566613347,-0.0039213318302096,1,13.6333333333333,29.9
