Time,x_ego,y_ego,velocity,acceleration,action,x_ped,y_ped
0,11.8,15.9,5,0,1,15.5,29.9
0.0333333333333333,11.799996971979,16.0666076888388,4.99642262101937,-0.0035773789806326,1,15.4972222222222,29.9
0.0666666666666667,11.7999781638927,16.2330926529822,4.99264763868136,-0.00377498233800289,1,15.4888888888889,29.9
0.1,11.7999359539863,16.399449295815,4.98873150815808,-0.0039161305232831,1,15.475,29.9
0.133333333333333,11.799872559128,16.5656736202375,4.98471458634142,-0.00401692181666213,1,15.4555555555556,29.9
0.166666666666667,11.7997972808588,16.7317627765487,4.9806257772055,-0.00408880913591947,1,15.4305555555556,29.9
0.2,11.7997235512793,16.8977147389346,4.97648582833991,-0.00413994886559443,1,15.4,29.9
0.233333333333333,11.7996710628303,17.0635280736397,4.9723097856685,-0.00417604267140703,1,15.3666666666667,29.9
0.266666666666667,11.7996576350837,17.2292017695911,4.96810860067713,-0.0042011849913699,1,15.3333333333333,29.9
0.3,11.7996968391524,17.3947351149658,4.96389011530518,-0.00421848537195046,1,15.3,29.9
0.333333333333333,11.799797817845,17.5601276085008,4.95965982965754,-0.00423028564763772,1,15.2666666666667,29.9
0.366666666666667,11.7999638250175,17.7253788971944,4.955421491889,-0.00423833776854288,1,15.2333333333333,29.9
0.4,11.8001932672918,17.8904887346015,4.9511776589157,-0.00424383297330166,1,15.2,29.9
0.433333333333333,11.8004813189189,18.0554569531357,4.94693012016688,-0.00424753874881123,1,15.1666666666667,29.9
0.466666666666667,11.8008212678373,18.2202834450922,4.94268017875225,-0.00424994141463753,1,15.1333333333333,29.9
0.5,11.801205561573,18.3849681487995,4.93842882017228,-0.00425135857997194,1,15.1,29.9
0.533333333333333,11.8016265895789,18.5495110377627,4.93417680809483,-0.0042520120774423,1,15.0666666666667,29.9
0.566666666666667,11.8020778426162,18.7139121110858,4.92992482502408,-0.00425198307075281,1,15.0333333333333,29.9
0.6,11.8025557458401,18.8781713837389,4.92567337307939,-0.00425145194469412,1,15,29.9
0.633333333333333,11.8030576418185,19.0422888821415,4.92142274247355,-0.0042506306058403,1,14.9666666666667,29.9
0.666666666666667,11.8035819971158,19.2062646396949,4.91717323892972,-0.00424950354382148,1,14.9333333333333,29.9
0.7,11.8041300026064,19.3700405592387,4.90943725469932,-0.00773598423039967,1,14.9,29.9
0.733333333333333,11.8047030670848,19.5334143173582,4.89304907215165,-0.0163881825476775,1,14.8666666666667,29.9
0.766666666666667,11.8053022516223,19.6961265885355,4.86975420452153,-0.0232948676301161,3,14.8333333333333,29.9
0.8,11.8059282030465,19.8578606987563,4.83436631622486,-0.0353878882966683,3,14.8,29.9
0.833333333333333,11.8065811120979,20.0182709877528,4.79033243639404,-0.044033879830824,3,14.7666666666667,29.9
0.866666666666667,11.8072603278549,20.1768963512807,4.72727905811491,-0.0630533782791334,3,14.7333333333333,29.9
0.9,11.8079644698693,20.3332758107728,4.65558690255474,-0.0716921555601679,3,14.7,29.9
0.933333333333333,11.8086917599936,20.4871214594074,4.57525954887642,-0.0803273536783147,3,14.6666666666667,29.9
0.966666666666667,11.8094395089298,20.638116806089,4.4845783186404,-0.0906812302360196,3,14.6333333333333,29.9
1,11.810204356791,20.78597454436,4.38701278771624,-0.0975655309241645,3,14.6,29.9
1.03333333333333,11.8109825255315,20.9304648830552,4.28254415347924,-0.104468634236996,3,14.5666666666667,29.9
1.06666666666667,11.8117698655991,21.0713581304777,4.17119694349293,-0.111347209986314,3,14.5333333333333,29.9
1.1,11.8125624055134,21.2085111577772,4.0581399923907,-0.113056951102227,3,14.5,29.9
1.13333333333333,11.8133566049775,21.3418673789631,3.94339665809764,-0.114743334293061,3,14.4666666666667,29.9
1.16666666666667,11.814149351936,21.4713993262335,3.82869019341728,-0.114706464680357,3,14.4333333333333,29.9
1.2,11.8149380756089,21.5971082700862,3.71402124017466,-0.114668953242624,3,14.4,29.9
1.23333333333333,11.8157207881265,21.7190242057458,3.60111234342975,-0.11290889674491,3,14.3666666666667,29.9
1.26666666666667,11.8164953447453,21.8371484373492,3.48651930995034,-0.11459303347941,3,14.3333333333333,29.9
1.3,11.8172580916803,21.951424879104,3.37024259524,-0.11627671471034,3,14.3,29.9
1.33333333333333,11.8180054871212,22.061739687494,3.24881684900128,-0.121425746238719,3,14.2666666666667,29.9
1.36666666666667,11.8187347492716,22.1679786726456,3.12568751295353,-0.123129336047748,3,14.2333333333333,29.9
1.4,11.8194442674497,22.2701431992533,3.00434333745241,-0.12134417550112,3,14.2,29.9
1.43333333333333,11.8201333523907,22.3683211086659,2.88648495576009,-0.117858381692316,3,14.1666666666667,29.9
1.46666666666667,11.8208021598024,22.4626867037259,2.77559997161293,-0.110884984147167,3,14.1333333333333,29.9
1.5,11.8214513426592,22.553443324684,2.66994339263075,-0.105656578982176,3,14.1,29.9
1.53333333333333,11.8220817055941,22.6407652050327,2.56951389275397,-0.100429499876777,3,14.0666666666667,29.9
1.56666666666667,11.8226941491765,22.7247978290666,2.47258775567586,-0.0969261370781167,3,14.0333333333333,29.9
1.6,11.8232897586279,22.8056866337564,2.3808855644324,-0.0917021912434541,3,14,29.9
1.63333333333333,11.8238693792975,22.883519239063,2.28921732527595,-0.0916682391564532,3,13.9666666666667,29.9
1.66666666666667,11.824433169389,22.9582678271695,2.19587088089884,-0.093346444377111,3,13.9333333333333,29.9
1.7,11.824981177189,23.029912817872,2.1031772736091,-0.0926936072897426,3,13.9,29.9
1.73333333333333,11.8255125001451,23.0983500048102,2.00352902943783,-0.0996482441712696,3,13.8666666666667,29.9
1.76666666666667,11.8260248281855,23.1634140336619,1.90082607631927,-0.102702953118555,3,13.8333333333333,29.9
1.8,11.8265159947578,23.2250053151728,1.79516570361044,-0.105660372708836,3,13.8,29.9
1.83333333333333,11.8269842350146,23.2830836128902,1.69002729798044,-0.105138405629994,3,13.7666666666667,29.9
1.86666666666667,11.8274282593403,23.3376937731836,1.58706055451927,-0.102966743461171,3,13.7333333333333,29.9
1.9,11.8278465965494,23.3889076676875,1.48623464737533,-0.100825907143941,3,13.7,29.9
1.93333333333333,11.8282380158724,23.4367957507176,1.38749221803459,-0.0987424293407437,3,13.6666666666667,29.9
1.96666666666667,11.8286017074532,23.4814267609852,1.29079581771936,-0.0966964003152284,3,13.6333333333333,29.9
2,11.8289372742058,23.5228680440386,1.19608870690958,-0.094707110809779,3,13.6,29.9
2.03333333333333,11.8292443223904,23.5611271280207,1.099853421967,-0.09623528494258,3,13.5666666666667,29.9
2.06666666666667,11.8295229673278,23.5962400828931,1.00733075652408,-0.0925226654429188,3,13.5333333333333,29.9
2.1,11.8297739722581,23.6283031746011,0.916871943220244,-0.0904588133038366,3,13.5,29.9
2.13333333333333,11.829997570941,23.657299891048,0.823344409523732,-0.0935275336965118,3,13.4666666666667,29.9
2.16666666666667,11.8301941231218,23.6832135935035,0.731868279885671,-0.0914761296380606,3,13.4333333333333,29.9
2.2,11.8303647805594,23.7061397218418,0.644071105689126,-0.087797174196545,3,13.4,29.9
2.23333333333333,11.8305105154601,23.7261428262472,0.556486535870467,-0.0875845698186595,3,13.3666666666667,29.9
2.26666666666667,11.8306321024904,23.7432595448272,0.470886829445048,-0.0855997064254191,3,13.3333333333333,29.9
2.3,11.8307306551274,23.7575852575736,0.389015264329091,-0.081871565115957,3,13.3,29.9
2.33333333333333,11.8308072234755,23.7692148029799,0.309094095696233,-0.0799211686328577,3,13.2666666666667,29.9
2.36666666666667,11.8308625855204,23.7782118259837,0.231043594610741,-0.0780505010854924,3,13.2333333333333,29.9
2.4,11.8308974314948,23.7846376991211,0.15482894115532,-0.0762146534554209,3,13.2,29.9
2.43333333333333,11.8309125753244,23.7885839608775,0.082298268217775,-0.0725306729375448,3,13.1666666666667,29.9
2.46666666666667,11.8309087882398,23.790146359466,0.0119771533801151,-0.0703211148376599,3,13.1333333333333,29.9
2.5,11.8308880007248,23.789607765807,0.0255634125641061,0.013586259183991,5,13.1,29.9
2.53333333333333,11.8308620912575,23.7887601028942,0.00313441020156857,-0.0224290023625376,3,13.0666666666667,29.9
2.56666666666667,11.8308620912575,23.7887601028942,0.00391112333854551,0.000776713136976948,5,13.0333333333333,29.9
2.6,11.8308620912575,23.7887601028942,0.00479484408598034,0.000883720747434823,5,13,29.9
2.63333333333333,11.8308620912575,23.7887601028942,0.00571800757267614,0.000923163486695804,5,12.9666666666667,29.9
2.66666666666667,11.8308620912575,23.7887601028942,0.00659592840430638,0.000877920831630244,5,12.9333333333333,29.9
2.7,11.8308620912575,23.7887601028942,0.00733984968972243,0.000743921285416049,5,12.9,29.9
2.73333333333333,11.8308620912575,23.7887601028942,0.00786842996713818,0.000528580277415746,5,12.8666666666667,29.9
2.76666666666667,11.8308620912575,23.7887601028942,0.00811688362851559,0.000248453661377405,5,12.8333333333333,29.9
2.8,11.8308620912575,23.7887601028942,0.00804331531500138,-7.35683135142003e-05,5,12.8,29.9
2.83333333333333,11.8308620912575,23.7887601028942,0.00763209561233183,-0.00041121970266956,5,12.7666666666667,29.9
2.86666666666667,11.8308620912575,23.7887601028942,0.00689439403937991,-0.00073770157295191,5,12.7333333333333,29.9
2.9,11.8308620912575,23.7887601028942,0.00586620180309103,-0.00102819223628889,5,12.7,29.9
2.93333333333333,11.8308620912575,23.7887601028942,0.00460433324335948,-0.00126186855973155,5,12.6666666666667,29.9
2.96666666666667,11.8308620912575,23.7887601028942,0.0031809891524674,-0.00142334409089208,5,12.6333333333333,29.9
3,11.8308620912575,23.7887601028942,0.00167749996842413,-0.00150348918404327,5,12.6,29.9
3.03333333333333,11.8308620912575,23.7887601028942,0.000177848856586709,-0.00149965111183742,5,12.5666666666667,29.9
3.06666666666667,11.8308620912575,23.7887601028942,0.00123748664877731,0.00105963779219061,5,12.5333333333333,29.9
3.1,11.8308620912575,23.7887601028942,0.00249692935826935,0.00125944270949203,5,12.5,29.9
3.13333333333333,11.8308620912575,23.7887601028942,0.00354210251623123,0.00104517315796188,5,12.4666666666667,29.9
3.16666666666667,11.8308620912575,23.7887601028942,0.00433082749731135,0.000788724981080116,5,12.4333333333333,29.9
3.2,11.8308620912575,23.7887601028942,0.00483873333251385,0.000507905835202497,5,12.4,29.9
3.23333333333333,11.8308620912575,23.7887601028942,0.00505950436059213,0.000220771028078283,5,12.3666666666667,29.9
3.26666666666667,11.8308620912575,23.7887601028942,0.00500388776898516,-5.56165916069636e-05,5,12.3333333333333,29.9
3.3,11.8308620912575,23.7887601028942,0.00469765712591418,-0.000306230643070988,5,12.3,29.9
3.33333333333333,11.8308620912575,23.7887601028942,0.00417877884079921,-0.000518878285114962,5,12.2666666666667,29.9
3.36666666666667,11.8308620912575,23.7887601028942,0.00349405544860029,-0.000684723392198924,5,12.2333333333333,29.9
3.4,11.8308620912575,23.7887601028942,0.00269552404378578,-0.00079853140481451,5,12.2,29.9
3.43333333333333,11.8308620912575,23.7887601028942,0.00183687281530668,-0.000858651228479095,5,12.1666666666667,29.9
3.46666666666667,11.8308620912575,23.7887601028942,0.000970107164219667,-0.000866765651087018,5,12.1333333333333,29.9
3.5,11.8308620912575,23.7887601028942,0.000142653616049982,-0.000827453548169685,5,12.1,29.9
3.53333333333333,11.8308620912575,23.7887601028942,0.000604960825821796,0.000462307209771815,5,12.0666666666667,29.9
3.56666666666667,11.8308620912575,23.7887601028942,0.00124076972620791,0.000635808900386118,5,12.0333333333333,29.9
3.6,11.8308620912575,23.7887601028942,0.00174233694226299,0.000501567216055073,5,12,29.9
3.63333333333333,11.8308620912575,23.7887601028942,0.00209705133971558,0.000354714397452596,5,11.9666666666667,29.9
3.66666666666667,11.8308620912575,23.7887601028942,0.00230180384556377,0.000204752505848181,5,11.9333333333333,29.9
3.7,11.8308620912575,23.7887601028942,0.00236213642430293,6.03325787391687e-05,5,11.9,29.9
3.73333333333333,11.8308620912575,23.7887601028942,0.00229097505876202,-7.11613655409167e-05,5,11.8666666666667,29.9
3.76666666666667,11.8308620912575,23.7887601028942,0.00210707137061399,-0.000183903688148026,5,11.8333333333333,29.9
3.8,11.8308620912575,23.7887601028942,0.0018332806124488,-0.000273790758165187,5,11.8,29.9
3.83333333333333,11.8308620912575,23.7887601028942,0.00149479843402734,-0.000338482178421467,5,11.7666666666667,29.9
3.86666666666667,11.8308620912575,23.7887601028942,0.00111746650557188,-0.000377331928455461,5,11.7333333333333,29.9
3.9,11.8308620912575,23.7887601028942,0.000726239461379638,-0.000391227044192238,5,11.7,29.9
3.93333333333333,11.8308620912575,23.7887601028942,0.000343884508875859,-0.000382354952503778,5,11.6666666666667,29.9
3.96666666666667,11.8308620912575,23.7887601028942,1.0037787862566e-05,-0.000333846721013293,5,11.6333333333333,29.9
4,11.8308620912575,23.7887601028942,0.000319885945913113,0.000309848158050547,5,11.6,29.9
4.03333333333333,11.8308620912575,23.7887601028942,0.000574339161091959,0.000254453215178847,5,11.5666666666667,29.9
4.06666666666667,11.8308620912575,23.7887601028942,0.000766503031961741,0.000192163870869781,5,11.5333333333333,29.9
4.1,11.8308620912575,23.7887601028942,0.000893750051114797,0.000127247019153056,5,11.5,29.9
4.13333333333333,11.8308620912575,23.7887601028942,0.000957337307379216,6.35872562644192e-05,5,11.4666666666667,29.9
4.16666666666667,11.8308620912575,23.7887601028942,0.000961851566357312,4.51425897809554e-06,5,11.4333333333333,29.9
4.2,11.8308620912575,23.7887601028942,0.000914535613536581,-4.73159528207302e-05,5,11.4,29.9
4.23333333333333,11.8308620912575,23.7887601028942,0.000824549762570251,-8.99858509663302e-05,5,11.3666666666667,29.9
4.26666666666667,11.8308620912575,23.7887601028942,0.00070221924403609,-0.000122330518534161,5,11.3333333333333,29.9
4.3,11.8308620912575,23.7887601028942,0.000558312418150293,-0.000143906825885797,5,11.3,29.9
4.33333333333333,11.8308620912575,23.7887601028942,0.00040338709182211,-0.000154925326328182,5,11.2666666666667,29.9
4.36666666666667,11.8308620912575,23.7887601028942,0.000247233378965852,-0.000156153712856258,5,11.2333333333333,29.9
4.4,11.8308620912575,23.7887601028942,9.84322093063466e-05,-0.000148801169659506,5,11.2,29.9
4.43333333333333,11.8308620912575,23.7887601028942,3.59606135980339e-05,-6.24715957083128e-05,5,11.1666666666667,29.9
4.46666666666667,11.8308620912575,23.7887601028942,0.000150603451809262,0.000114642838211228,5,11.1333333333333,29.9
4.5,11.8308620912575,23.7887601028942,0.000241937091349703,9.13336395404405e-05,5,11.1,29.9
4.53333333333333,11.8308620912575,23.7887601028942,0.00030814444886419,6.62073575144872e-05,5,11.0666666666667,29.9
4.56666666666667,11.8308620912575,23.7887601028942,0.000349018525598874,4.08740767346845e-05,5,11.0333333333333,29.9
4.6,11.8308620912575,23.7887601028942,0.000365758382286146,1.67398566872714e-05,5,11,29.9
4.63333333333333,11.8308620912575,23.7887601028942,0.000360714334033586,-5.0440482525595e-06,5,10.9666666666667,29.9
4.66666666666667,11.8308620912575,23.7887601028942,0.000337103571753435,-2.3610762280151e-05,5,10.9333333333333,29.9
4.7,11.8308620912575,23.7887601028942,0.000298716202302392,-3.83873694510432e-05,5,10.9,29.9
4.73333333333333,11.8308620912575,23.7887601028942,0.000249629503896994,-4.90866984053982e-05,5,10.8666666666667,29.9
4.76666666666667,11.8308620912575,23.7887601028942,0.000193945280813046,-5.56842230839473e-05,5,10.8333333333333,29.9
4.8,11.8308620912575,23.7887601028942,0.000135561840841541,-5.83834399715059e-05,5,10.8,29.9
4.83333333333333,11.8308620912575,23.7887601028942,7.79885675579117e-05,-5.75732732836288e-05,5,10.7666666666667,29.9
4.86666666666667,11.8308620912575,23.7887601028942,2.42075489372756e-05,-5.37810186206361e-05,5,10.7333333333333,29.9
4.9,11.8308620912575,23.7887601028942,2.34165493426416e-05,-7.90999594634067e-07,5,10.7,29.9
4.93333333333333,11.8308620912575,23.7887601028942,6.31800587666842e-05,3.97635094240426e-05,5,10.6666666666667,29.9
4.96666666666667,11.8308620912575,23.7887601028942,9.40414032398617e-05,3.08613444731775e-05,5,10.6333333333333,29.9
5,11.8308620912575,23.7887601028942,0.000115585599442274,2.15441962024121e-05,5,10.6,29.9
5.03333333333333,11.8308620912575,23.7887601028942,0.000127959269617836,1.23736701755622e-05,5,10.5666666666667,29.9
5.06666666666667,11.8308620912575,23.7887601028942,0.000131783921288761,3.82465167092529e-06,5,10.5333333333333,29.9
5.1,11.8308620912575,23.7887601028942,0.000128055365516898,-3.72855577186361e-06,5,10.5,29.9
5.13333333333333,11.8308620912575,23.7887601028942,0.000118036801801832,-1.00185637150656e-05,5,10.4666666666667,29.9
5.16666666666667,11.8308620912575,23.7887601028942,0.000103152379289451,-1.48844225123811e-05,5,10.4333333333333,29.9
5.2,11.8308620912575,23.7887601028942,8.4887045488054e-05,-1.8265333801397e-05,5,10.4,29.9
5.23333333333333,11.8308620912575,23.7887601028942,6.4697312224151e-05,-2.0189733263903e-05,5,10.3666666666667,29.9
5.26666666666667,11.8308620912575,23.7887601028942,4.39362975081854e-05,-2.07610147159655e-05,5,10.3333333333333,29.9
5.3,11.8308620912575,23.7887601028942,2.37951261956399e-05,-2.01411713125455e-05,5,10.3,29.9
5.33333333333333,11.8308620912575,23.7887601028942,5.26156455210422e-06,-1.85335616435357e-05,5,10.2666666666667,29.9
5.36666666666667,11.8308620912575,23.7887601028942,1.09043177347447e-05,5.6427531826405e-06,5,10.2333333333333,29.9
5.4,11.8308620912575,23.7887601028942,2.41785774214858e-05,1.32742596867411e-05,5,10.2,29.9
5.43333333333333,11.8308620912575,23.7887601028942,3.42677562856316e-05,1.00891788641457e-05,5,10.1666666666667,29.9
5.46666666666667,11.8308620912575,23.7887601028942,4.10915157258168e-05,6.82375944018519e-06,5,10.1333333333333,29.9
5.5,11.8308620912575,23.7887601028942,4.47561999269751e-05,3.66468420115831e-06,5,10.1,29.9
5.53333333333333,11.8308620912575,23.7887601028942,0.000144134522614424,9.93783226874487e-05,5,10.0666666666667,29.9
5.56666666666667,11.8308648168697,23.7891796419113,0.0218646448345694,0.021720510311955,4,10.0333333333333,29.9
5.6,11.8308737901957,23.7905608507982,0.0609593269566109,0.0390946821220415,4,10,29.9
5.63333333333333,11.8308924969361,23.7934399625657,0.111692358176318,0.0507330312197074,4,9.96666666666667,29.9
5.66666666666667,11.8309221156199,23.7979973911457,0.161621834268632,0.0499294760923133,4,9.93333333333333,29.9
5.7,11.830962460247,23.8042023347957,0.210522981992473,0.0489011477238413,4,9.9,29.9
5.73333333333333,11.8310133150992,23.8120178268785,0.258251162182678,0.0477281801902048,4,9.86666666666667,29.9
5.76666666666667,11.8310744605277,23.8214043779937,0.304807563712937,0.0465564015302597,4,9.83333333333334,29.9
5.8,11.8311457004469,23.8323239787203,0.350250600527363,0.0454430368144255,4,9.8,29.9
5.83333333333333,11.8312268649909,23.8447403895456,0.394627130970722,0.044376530443359,4,9.76666666666667,29.9
5.86666666666667,11.8313178082162,23.8586187902939,0.437975450324093,0.0433483193533707,4,9.73333333333333,29.9
5.9,11.8314184055168,23.873925515694,0.480325920997603,0.0423504706735102,4,9.7,29.9
5.93333333333333,11.8315285482231,23.8906274915205,0.521682086029375,0.0413561650317718,4,9.66666666666667,29.9
5.96666666666667,11.8316481363048,23.9086915103844,0.562040470428839,0.0403583843994644,4,9.63333333333333,29.9
6,11.8317770758242,23.9280843600677,0.601405575979931,0.0393651055510919,4,9.6,29.9
6.03333333333333,11.8319152763928,23.9487730539743,0.639787511928505,0.0383819359485745,4,9.56666666666667,29.9
6.06666666666667,11.8320626477162,23.9707249951135,0.677200184046749,0.0374126721182435,4,9.53333333333333,29.9
6.1,11.832219096111,23.9939081750311,0.713669969086423,0.0364697850396745,4,9.5,29.9
6.13333333333333,11.8323845257764,24.0182921026407,0.749259087688187,0.0355891186017638,4,9.46666666666667,29.9
6.16666666666667,11.8325588382453,24.0438484081661,0.784026388312864,0.034767300624677,4,9.43333333333333,29.9
6.2,11.83274192623,24.0705504991955,0.818019200402892,0.0339928120900281,4,9.4,29.9
6.23333333333333,11.832933668356,24.0983732297017,0.851276373303509,0.0332571729006166,4,9.36666666666667,29.9
6.26666666666667,11.8331339254537,24.1272926529937,0.883830506696197,0.0325541333926885,4,9.33333333333333,29.9
