Time,x_ego,y_ego,velocity,acceleration,action,x_ped,y_ped
0,11.8,8.9,7,0,1,15.5,29.9
0.0333333333333333,11.8000016887344,9.13327037939326,6.99615578093914,-0.00384421906085919,1,15.3694444444444,29.9
0.0666666666666667,11.8000122551543,9.36640659876993,6.99196948665426,-0.00418629428488426,1,15.2444444444444,29.9
0.1,11.8000374181715,9.59940075490707,6.9876950403316,-0.00427444632265495,1,15.125,29.9
0.133333333333333,11.8000801433644,9.83225378363057,6.98349776590493,-0.00419727442667561,1,15.0111111111111,29.9
0.166666666666667,11.800141464954,10.0649678752576,6.97935603291146,-0.00414173299346654,1,14.9027777777778,29.9
0.2,11.800221222344,10.2975446069789,6.97525433648435,-0.00410169642711189,1,14.8,29.9
0.233333333333333,11.8003186243492,10.5299851167495,6.97118156631783,-0.00407277016651708,1,14.7027777777778,29.9
0.266666666666667,11.8004326224799,10.7622902279244,6.9671297633693,-0.00405180294853125,1,14.6111111111111,29.9
0.3,11.8005621202531,10.9944605385473,6.96309322674055,-0.00403653662874426,1,14.525,29.9
0.333333333333333,11.8007060675401,11.2264964852896,6.95906787279356,-0.00402535394699033,1,14.4444444444444,29.9
0.366666666666667,11.800863491358,11.4583983892297,6.95505077593033,-0.00401709686323404,1,14.3694444444444,29.9
0.4,11.801033503885,11.6901664886265,6.95103983989879,-0.00401093603153857,1,14.3,29.9
0.433333333333333,11.8012153120365,11.9218009623808,6.94703356260784,-0.00400627729095682,1,14.2361111111111,29.9
0.466666666666667,11.8014082368004,12.1533019468272,6.94303086778553,-0.0040026948223062,1,14.1777777777778,29.9
0.5,11.80161173872,12.3846695477517,6.93903098437494,-0.00399988341058588,1,14.125,29.9
0.533333333333333,11.801826277731,12.6159038484682,6.93503338250776,-0.00399760186718723,1,14.0777777777778,29.9
0.566666666666667,11.8020552169542,12.847004914505,6.9310376756102,-0.00399570689756068,1,14.0361111111111,29.9
0.6,11.8023013586385,13.0779727998509,6.92704356397709,-0.00399411163310237,1,14,29.9
0.633333333333333,11.8025662729377,13.3088075507604,6.92305083143633,-0.00399273254076604,1,13.9694444444444,29.9
0.666666666666667,11.8028506585332,13.5395092080398,6.9190593225965,-0.0039915088398299,1,13.9444444444444,29.9
0.7,11.8031546577898,13.7700778086654,6.91506892703572,-0.00399039556077252,1,13.925,29.9
0.733333333333333,11.8034780912697,14.000513386935,6.91107956733174,-0.00398935970398906,1,13.9111111111111,29.9
0.766666666666667,11.8038206087368,14.2308159752882,6.90709118968341,-0.00398837764832649,1,13.9027777777778,29.9
0.8,11.804181773615,14.4609856048886,6.90310375672242,-0.00398743296099013,1,13.9,29.9
0.833333333333333,11.804561037444,14.6909641748828,6.89562944029522,-0.00747431642720287,1,13.9,29.9
0.866666666666667,11.8049575001329,14.9204341833644,6.87259216966454,-0.0230372706306756,3,13.9,29.9
0.9,11.8053699050636,15.1488478339783,6.83225017146931,-0.0403419981952284,3,13.9,29.9
0.933333333333333,11.8057970242407,15.3757438820813,6.7815381433322,-0.0507120281371138,3,13.9,29.9
0.966666666666667,11.8062377259397,15.6007766933985,6.72045813498746,-0.061080008344736,3,13.9,29.9
1,11.8066908475673,15.8236007014901,6.64901223198242,-0.0714459030050412,3,13.9,29.9
1.03333333333333,11.8071553042634,16.0439281758875,6.57066854071069,-0.0783436912717335,3,13.9,29.9
1.06666666666667,11.8076302524303,16.2616153194277,6.4905950118859,-0.0800735288247862,3,13.9,29.9
1.1,11.8081148205624,16.4764893070325,6.40188227613262,-0.088712735753278,3,13.9,29.9
1.13333333333333,11.8086080004148,16.6882912502755,6.30627575008468,-0.0956065260479422,3,13.9,29.9
1.16666666666667,11.8091089276459,16.8968487778966,6.20722090606776,-0.0990548440169237,3,13.9,29.9
1.2,11.8096167650274,17.1020182558482,6.10299638974128,-0.104224516326474,3,13.9,29.9
1.23333333333333,11.8101305776423,17.3036273795028,5.99360304944884,-0.109393340292439,3,13.9,29.9
1.26666666666667,11.8106494911216,17.5015616440912,5.88250771642142,-0.111095333027427,3,13.9,29.9
1.3,11.8111727564703,17.6957930371179,5.77143289042332,-0.1110748259981,3,13.9,29.9
1.33333333333333,11.8116995804325,17.8862931931524,5.65863480161894,-0.112798088804382,3,13.9,29.9
1.36666666666667,11.812229073522,18.0730050530632,5.544135559137,-0.114499242481939,3,13.9,29.9
1.4,11.8127603912223,18.2559006320014,5.42965760888863,-0.114477950248364,3,13.9,29.9
1.43333333333333,11.8132926826022,18.4349519483491,5.31347898365822,-0.116178625230408,3,13.9,29.9
1.46666666666667,11.8138249623702,18.6100732555608,5.19385606539798,-0.119622918260247,3,13.9,29.9
1.5,11.8143561789681,18.7811497495975,5.07078931212832,-0.123066753269656,3,13.9,29.9
1.53333333333333,11.8148854336684,18.9481244053373,4.94774519839999,-0.123044113728334,3,13.9,29.9
1.56666666666667,11.815411836218,19.1109405647224,4.82127948457585,-0.126465713824133,3,13.9,29.9
1.6,11.815934426686,19.2695125096369,4.69309273598962,-0.128186748586238,3,13.9,29.9
1.63333333333333,11.8164523208989,19.4237832302941,4.56320678690141,-0.129885949088209,3,13.9,29.9
1.66666666666667,11.8169641470189,19.5737237883095,4.43325644990612,-0.129950336995288,3,13.9,29.9
1.7,11.8174665185987,19.7192728616345,4.29972685298053,-0.133529596925587,3,13.9,29.9
1.73333333333333,11.8179564009472,19.8603697257061,4.16612977486758,-0.133597078112954,3,13.9,29.9
1.76666666666667,11.8184318707977,19.9970127151203,4.0324977874854,-0.133631987382182,3,13.9,29.9
1.8,11.8188918257471,20.129201084856,3.89885418662031,-0.133643600865092,3,13.9,29.9
1.83333333333333,11.8193358234002,20.2569347465642,3.76521562175358,-0.133638564866728,3,13.8991319444444,29.9
1.86666666666667,11.8197639162923,20.3802140797417,3.63159397352281,-0.133621648230771,3,13.8965277777778,29.9
1.9,11.820176411326,20.499011094063,3.49627556465258,-0.13531840887023,3,13.8921875,29.9
1.93333333333333,11.8205737342411,20.6132689736546,3.35924480470415,-0.137030759948431,3,13.8861111111111,29.9
1.96666666666667,11.8209564049723,20.7229310785008,3.22052802358721,-0.138716781116937,3,13.8782986111111,29.9
2,11.8213251242006,20.8279986658587,3.08357280348684,-0.136955220100368,3,13.86875,29.9
2.03333333333333,11.8216805127258,20.9284730798009,2.94493687411877,-0.13863592936807,3,13.8574652777778,29.9
2.06666666666667,11.8220230453032,21.0243557257405,2.80806610710957,-0.1368707670092,3,13.8444444444444,29.9
2.1,11.822353180886,21.1157058174865,2.67298307930468,-0.135083027804893,3,13.8296875,29.9
2.13333333333333,11.8226709576386,21.2025248200326,2.53620021406885,-0.136782865235832,3,13.8131944444444,29.9
2.16666666666667,11.8229760684109,21.2847851466713,2.39946183982714,-0.13673837424171,3,13.7949652777778,29.9
2.2,11.8232681573024,21.3625173527546,2.26451205116976,-0.13494978865738,3,13.775,29.9
2.23333333333333,11.8235467862879,21.4357821136476,2.13151206841444,-0.132999982755318,3,13.7532986111111,29.9
2.26666666666667,11.8238113934778,21.5046332955179,1.99993897633143,-0.131573092083009,3,13.7298611111111,29.9
2.3,11.8240614347102,21.5691368849205,1.87073052754936,-0.129208448782064,3,13.7046875,29.9
2.33333333333333,11.8242964703421,21.6293766189689,1.74411796031094,-0.12661256723842,3,13.6777777777778,29.9
2.36666666666667,11.8245161657736,21.6854391147005,1.62008157364959,-0.124036386661355,3,13.6491319444444,29.9
2.4,11.8247203057262,21.7374094215399,1.49858157118568,-0.121500002463905,3,13.61875,29.9
2.43333333333333,11.8249088053411,21.7853713864015,1.37956843960249,-0.119013131583189,3,13.5866319444444,29.9
2.46666666666667,11.8250817026254,21.8294070975137,1.26299824784298,-0.116570191759509,3,13.5527777777778,29.9
2.5,11.8252391424834,21.8695969981163,1.14880669975452,-0.114191548088466,3,13.5171875,29.9
2.53333333333333,11.8253813532894,21.906019516832,1.03695815374699,-0.111848546007533,3,13.4798611111111,29.9
2.56666666666667,11.825508632742,21.9387538742479,0.927536797714933,-0.109421356032053,3,13.4407986111111,29.9
2.6,11.8256214351083,21.9679117230585,0.822370126725871,-0.105166670989063,3,13.4,29.9
2.63333333333333,11.8257202407929,21.9936047240946,0.719620292647855,-0.102749834078015,3,13.3574652777778,29.9
2.66666666666667,11.8258055253329,22.0159397391543,0.620875490384962,-0.098744802262893,3,13.3131944444444,29.9
2.7,11.8258777550631,22.0350207443711,0.52438609789775,-0.0964893924872129,3,13.2671875,29.9
2.73333333333333,11.825937291442,22.0509233790092,0.430177774248049,-0.094208323649701,3,13.2194444444444,29.9
2.76666666666667,11.8259845855995,22.0637522245652,0.339948472793842,-0.0902293014542062,3,13.1699652777778,29.9
2.8,11.8260200677454,22.0736096438957,0.251879467253037,-0.0880690055408057,3,13.11875,29.9
2.83333333333333,11.8260440428109,22.0805660467434,0.165890429464549,-0.0859890377884878,3,13.0657986111111,29.9
2.86666666666667,11.8260569023369,22.0847207986918,0.0838291424790118,-0.0820612869855371,3,13.0111111111111,29.9
2.9,11.8260590396738,22.0861777972135,0.00463485849382143,-0.0791942839851904,3,12.9546875,29.9
2.93333333333333,11.8260544438685,22.0860782151497,0.00373323170076784,-0.000901626793053589,5,12.8965277777778,29.9
2.96666666666667,11.8260485412037,22.0859786376123,0.0024559098036978,-0.00127732189707004,5,12.8366319444444,29.9
3,11.8260485412037,22.0859786376123,0.00297178871733822,0.000515878913640422,5,12.775,29.9
3.03333333333333,11.8260485412037,22.0859786376123,0.00372624174720104,0.000754453029862814,5,12.7116319444444,29.9
3.06666666666667,11.8260485412037,22.0859786376123,0.00462848025444024,0.000902238507239202,5,12.6465277777778,29.9
3.1,11.8260485412037,22.0859786376123,0.00556802450255254,0.000939544248112302,5,12.5796875,29.9
3.13333333333333,11.8260485412037,22.0859786376123,0.00643021958657424,0.000862195084021696,5,12.5111111111111,29.9
3.16666666666667,11.8260485412037,22.0859786376123,0.00710968163021199,0.000679462043637749,5,12.4407986111111,29.9
3.2,11.8260485412037,22.0859786376123,0.00752085018795024,0.000411168557738256,5,12.36875,29.9
3.23333333333333,11.8260485412037,22.0859786376123,0.00760519431715555,8.43441292053106e-05,5,12.2949652777778,29.9
3.26666666666667,11.8260485412037,22.0859786376123,0.00733496399167896,-0.000270230325476596,5,12.2194444444444,29.9
3.3,11.8260485412037,22.0859786376123,0.00671367436616184,-0.000621289625517118,5,12.1421875,29.9
3.33333333333333,11.8260485412037,22.0859786376123,0.00577374386183508,-0.00093993050432676,5,12.0631944444444,29.9
3.36666666666667,11.8260485412037,22.0859786376123,0.00457187097516569,-0.00120187288666939,5,11.9824652777778,29.9
3.4,11.8260485412037,22.0859786376123,0.00318282817332883,-0.00138904280183686,5,11.9,29.9
3.43333333333333,11.8260485412037,22.0859786376123,0.00169237855354032,-0.00149044961978851,5,11.8157986111111,29.9
3.46666666666667,11.8260485412037,22.0859786376123,0.000189990510704426,-0.00150238804283589,5,11.7298611111111,29.9
3.5,11.8260485412037,22.0859786376123,0.00123805129269573,0.0010480607819913,5,11.6421875,29.9
3.53333333333333,11.8260485412037,22.0859786376123,0.00251465102930099,0.00127659973660526,5,11.5527777777778,29.9
3.56666666666667,11.8260485412037,22.0859786376123,0.00357666642947806,0.00106201540017707,5,11.4616319444444,29.9
3.6,11.8260485412037,22.0859786376123,0.00437821571655543,0.000801549287077374,5,11.36875,29.9
3.63333333333333,11.8260485412037,22.0859786376123,0.00489244501608908,0.000514229299533649,5,11.2741319444444,29.9
3.66666666666667,11.8260485412037,22.0859786376123,0.00511179749758718,0.000219352481498094,5,11.1777777777778,29.9
3.7,11.8260485412037,22.0859786376123,0.00504692883970872,-6.48686578784557e-05,5,11.0796875,29.9
3.73333333333333,11.8260485412037,22.0859786376123,0.00472449272044964,-0.000322436119259079,5,10.9798611111111,29.9
3.76666666666667,11.8260485412037,22.0859786376123,0.00418407274399362,-0.000540419976456018,5,10.8782986111111,29.9
3.8,11.8260485412037,22.0859786376123,0.0034745635160059,-0.000709509227987722,5,10.775,29.9
3.83333333333333,11.8260485412037,22.0859786376123,0.00265030530092036,-0.00082425821508554,5,10.6699652777778,29.9
3.86666666666667,11.8260485412037,22.0859786376123,0.00176725710869354,-0.000883048192226827,5,10.5631944444444,29.9
3.9,11.8260485412037,22.0859786376123,0.000879456434596095,-0.00088780067409744,5,10.4546875,29.9
3.93333333333333,11.8260485412037,22.0859786376123,3.59650431789725e-05,-0.000843491391417122,5,10.3444444444444,29.9
3.96666666666667,11.8260485412037,22.0859786376123,0.000721555876282654,0.000685590833103681,5,10.2324652777778,29.9
4,11.8260485412037,22.0859786376123,0.001360556385178,0.000639000508895346,5,10.11875,29.9
4.03333333333333,11.8260485412037,22.0859786376123,0.0018585662364911,0.000498009851313105,5,10.0032986111111,29.9
4.06666666666667,11.8260485412037,22.0859786376123,0.00220344440462313,0.00034487816813202,5,9.88611111111111,29.9
4.1,11.8260485412037,22.0859786376123,0.00239297637628436,0.00018953197166123,5,9.7671875,29.9
4.13333333333333,11.8260485412037,22.0859786376123,0.00243391939551183,4.09430192274715e-05,5,9.64652777777778,29.9
4.16666666666667,11.8260485412037,22.0859786376123,0.00234061865718176,-9.33007383300704e-05,5,9.52413194444444,29.9
4.2,11.8260485412037,22.0859786376123,0.00213332946094974,-0.000207289196232015,5,9.4,29.9
4.23333333333333,11.8260485412037,22.0859786376123,0.0018363822210527,-0.000296947239897037,5,9.27413194444444,29.9
4.26666666666667,11.8260485412037,22.0859786376123,0.00147632019651917,-0.000360062024533538,5,9.14652777777778,29.9
4.3,11.8260485412037,22.0859786376123,0.00108012549047409,-0.000396194706045073,5,9.0171875,29.9
4.33333333333333,11.8260485412037,22.0859786376123,0.000673629141863628,-0.000406496348610466,5,8.88611111111111,29.9
4.36666666666667,11.8260485412037,22.0859786376123,0.00028017796364929,-0.000393451178214338,5,8.75329861111111,29.9
4.4,11.8260485412037,22.0859786376123,8.03939151817241e-05,-0.000199784048467566,5,8.61875,29.9
4.43333333333333,11.8260485412037,22.0859786376123,0.000392465319121625,0.000312071403939901,5,8.48246527777778,29.9
4.46666666666667,11.8260485412037,22.0859786376123,0.000644999373339896,0.000252534054218271,5,8.34444444444444,29.9
4.5,11.8260485412037,22.0859786376123,0.000831605039206798,0.000186605665866902,5,8.2046875,29.9
4.53333333333333,11.8260485412037,22.0859786376123,0.000950324046570645,0.000118719007363848,5,8.06319444444444,29.9
4.56666666666667,11.8260485412037,22.0859786376123,0.00100319029105671,5.28662444860635e-05,5,7.91996527777778,29.9
4.6,11.8260485412037,22.0859786376123,0.000995616226116586,-7.5740649401225e-06,5,7.775,29.9
4.63333333333333,11.8260485412037,22.0859786376123,0.00093566397668839,-5.99522494281959e-05,5,7.62829861111111,29.9
4.66666666666667,11.8260485412037,22.0859786376123,0.000833258212939521,-0.00010240576374887,5,7.47986111111111,29.9
4.7,11.8260485412037,22.0859786376123,0.00069939381428788,-0.00013386439865164,5,7.3296875,29.9
4.73333333333333,11.8260485412037,22.0859786376123,0.00054538471688045,-0.00015400909740743,5,7.17777777777778,29.9
4.76666666666667,11.8260485412037,22.0859786376123,0.00038219182827047,-0.000163192888609981,5,7.02413194444444,29.9
4.8,11.8260485412037,22.0859786376123,0.000219858276937352,-0.000162333551333118,5,6.86875,29.9
4.83333333333333,11.8260485412037,22.0859786376123,6.70702684194857e-05,-0.000152788008517866,5,6.71163194444444,29.9
4.86666666666667,11.8260485412037,22.0859786376123,6.91479067977354e-05,2.07763837824964e-06,5,6.55277777777778,29.9
4.9,11.8260485412037,22.0859786376123,0.000282217512664241,0.000213069605866506,5,6.3921875,29.9
4.93333333333333,11.826049261974,22.0861861670928,0.00775750250307676,0.00747528499041252,5,6.22986111111111,29.9
4.96666666666667,11.8260504284933,22.0865220480213,0.0124412085101408,0.00468370600706406,5,6.06579861111111,29.9
5,11.8260532320901,22.0873292356073,0.0360141303929965,0.0235729218828557,4,5.9,29.9
5.03333333333333,11.8260601538518,22.089321869837,0.0835026245093789,0.0474884941163824,4,5.9,29.9
5.06666666666667,11.826072747243,22.0929462235106,0.133859542084603,0.050356917575224,4,5.9,29.9
5.1,11.826091134541,22.0982347793644,0.183318490783613,0.0494589486990102,4,5.9,29.9
5.13333333333333,11.826115218037,22.1051541200249,0.231685101937791,0.0483666111541783,4,5.9,29.9
5.16666666666667,11.8261448942654,22.1136659097721,0.278870235480444,0.0471851335426529,4,5.9,29.9
5.2,11.826180071234,22.1237313213393,0.324916118039049,0.0460458825586045,4,5.9,29.9
5.23333333333333,11.8262206775225,22.1353133153306,0.369874720304875,0.0449586022658258,4,5.9,29.9
5.26666666666667,11.8262666619419,22.1483764172584,0.413787902415888,0.0439131821110131,4,5.9,29.9
5.3,11.8263179921188,22.1628864209896,0.456690276726198,0.04290237431031,4,5.9,29.9
5.33333333333333,11.8263746521717,22.178810078939,0.49860147636764,0.0419111996414423,4,5.9,29.9
5.36666666666667,11.826436637893,22.1961143236711,0.53951725550606,0.0409157791384205,4,5.9,29.9
5.4,11.8265039526921,22.2147659482877,0.579437353029604,0.039920097523544,4,5.9,29.9
5.43333333333333,11.8265766047281,22.2347318419677,0.618368551773366,0.0389311987437618,4,5.9,29.9
5.46666666666667,11.8266546033387,22.2559791915117,0.656322513280973,0.0379539615076068,4,5.9,29.9
5.5,11.8267379548951,22.278475629032,0.693315395001232,0.0369928817202592,4,5.9,29.9
5.53333333333333,11.8268266595486,22.302189677002,0.729390350371155,0.036074955369923,4,5.9,29.9
5.56666666666667,11.8269207102071,22.3270917964267,0.764611981555676,0.0352216311845209,4,5.9,29.9
5.6,11.8270200884834,22.3531544460431,0.79903374632397,0.0344217647682942,4,5.9,29.9
5.63333333333333,11.8271247597901,22.3803517041864,0.832699026789718,0.0336652804657475,4,5.9,29.9
5.66666666666667,11.8272346696377,22.4086589779615,0.865643763560692,0.0329447367709746,4,5.9,29.9
5.7,11.8273497412764,22.4380527856569,0.897898385395166,0.0322546218344738,4,5.9,29.9
5.73333333333333,11.8274698745668,22.4685105391215,0.929481776347671,0.0315833909525044,4,5.9,29.9
5.76666666666667,11.8275949434523,22.5000095603487,0.960368338224511,0.0308865618768402,4,5.9,29.9
5.8,11.8277247948046,22.5325261255587,0.990530332306215,0.0301619940817043,4,5.9,29.9
5.83333333333333,11.827859253229,22.5660358560892,1.01995539750805,0.02942506520183,4,5.9,29.9
5.86666666666667,11.8279981269747,22.6005141099227,1.0486399113897,0.0286845138816523,4,5.9,29.9
5.9,11.8281412143241,22.635936253299,1.07658833936152,0.0279484279718192,4,5.9,29.9
5.93333333333333,11.8282883105371,22.6722779089841,1.10381147361186,0.0272231342503435,4,5.9,29.9
5.96666666666667,11.8284392148609,22.7095151324478,1.13032432977915,0.026512856167292,4,5.9,29.9
6,11.8285937420176,22.747625840872,1.15628828659436,0.0259639568152088,4,5.9,29.9
6.03333333333333,11.8287517704998,22.7866015475662,1.1823726049846,0.0260843183902362,4,5.9,29.9
6.06666666666667,11.8289133052905,22.8264631042168,1.20964616445512,0.0272735594705191,4,5.9,29.9
6.1,11.8290785272261,22.8672727009962,1.23951729834668,0.0298711338915634,4,5.9,29.9
6.13333333333333,11.8292478339071,22.9091435170665,1.27357448373818,0.0340571853914959,4,5.9,29.9
6.16666666666667,11.8294218423884,22.9522388545277,1.3131912958227,0.0396168120845231,4,5.9,29.9
6.2,11.8296013578383,22.9967620627635,1.35938636323964,0.0461950674169442,4,5.9,29.9
6.23333333333333,11.8297873335169,23.0429443966595,1.41282173644914,0.0534353732094948,4,5.9,29.9
6.26666666666667,11.8299808327317,23.0910338640997,1.47385591050259,0.0610341740534506,4,5.9,29.9
6.3,11.8301829965093,23.141286202233,1.54258495537164,0.068729044869055,4,5.9,29.9
6.33333333333333,11.8303950076567,23.1939555551905,1.61883514450017,0.0762501891285283,4,5.9,29.9
6.36666666666667,11.830618059633,23.2492872475894,1.70225152406247,0.0834163795622958,4,5.9,29.9
6.4,11.830853324333,23.3075110951361,1.79224952527604,0.0899980012135759,4,5.9,29.9
6.43333333333333,11.8311019142369,23.3688339996615,1.88806315018481,0.0958136249087671,4,5.9,29.9
6.46666666666667,11.8313648547497,23.4334359684958,1.98885208041524,0.100788930230429,4,5.9,29.9
6.5,11.8316430624062,23.5014681050208,2.09372774365209,0.104875663236851,4,5.9,29.9
