Time,x_ego,y_ego,velocity,acceleration,action,x_ped,y_ped
0,11.8,8.9,7,0,1,15.5,29.9
0.0333333333333333,11.8000108077957,9.1332703793511,6.99615583724665,-0.00384416275335475,1,15.5,29.9
0.0666666666666667,11.8000784322399,9.3664065971183,6.99197010845094,-0.00418572879570434,1,15.5,29.9
0.1,11.8002394740698,9.59940074004049,6.98769716383275,-0.00427294461819194,1,15.5,29.9
0.133333333333333,11.8005129129169,9.8322537175546,6.98350221613376,-0.00419494769899043,1,15.5,29.9
0.166666666666667,11.8009053678853,10.0649676765616,6.97936315941752,-0.00413905671623471,1,15.5,29.9
0.2,11.8014158113427,10.297544140086,6.97526398956116,-0.00409916985636638,1,15.5,29.9
0.233333333333333,11.8020391799143,10.5299841898932,6.9711932792632,-0.00407071029795336,1,15.5,29.9
0.266666666666667,11.8027687634551,10.762288598348,6.96714296691098,-0.00405031235222442,1,15.5,29.9
0.3,11.8035959052944,10.9944579245589,6.96310711970402,-0.00403584720696415,1,15.5,29.9
0.333333333333333,11.8045069017055,11.2264925896357,6.95908166447221,-0.00402545523180553,1,15.5,29.9
0.366666666666667,11.8054891230755,11.4583929161499,6.95506389518077,-0.00401776929144493,1,15.5,29.9
0.4,11.8065304198349,11.6901591590902,6.95105194503434,-0.00401195014642131,1,15.5,29.9
0.433333333333333,11.8076218555462,11.9217915179132,6.94704459092143,-0.00400735411291375,1,15.5,29.9
0.466666666666667,11.8087577599961,12.1532901463826,6.94304090422558,-0.00400368669585305,1,15.5,29.9
0.5,11.8099349383956,12.3846551618076,6.93904017351142,-0.00400073071415896,1,15.5,29.9
0.533333333333333,11.8111520841811,12.6158866525313,6.93504185862394,-0.00399831488748248,1,15.5,29.9
0.566666666666667,11.8124093526859,12.8469846839795,6.93104555607382,-0.00399630255011907,1,15.5,29.9
0.6,11.8137080216018,13.0779493035804,6.927050969089,-0.00399458698481947,1,15.5,29.9
0.633333333333333,11.8150501737434,13.308780544889,6.92305788123298,-0.00399308785601615,1,15.5,29.9
0.666666666666667,11.8164383690529,13.5394784311974,6.9190661340562,-0.00399174717678452,1,15.5,29.9
0.7,11.817875307971,13.7700429787938,6.91507560925821,-0.00399052479798456,1,15.5,29.9
0.733333333333333,11.8193635142335,14.0004741999017,6.91108621541897,-0.00398939383924191,1,15.5,29.9
0.766666666666667,11.8209050755093,14.2307721052167,6.90709787896868,-0.00398833645029217,1,15.5,29.9
0.8,11.8225014750547,14.4609367059067,6.90311053881893,-0.00398734014974789,1,15.5,29.9
0.833333333333333,11.8241535312515,14.6909680149514,6.89912414390229,-0.00398639491663655,1,15.5,29.9
0.866666666666667,11.8258614411541,14.9208660477715,6.89513865269339,-0.00398549120890301,1,15.5,29.9
0.9,11.8276249054904,15.1506308221991,6.89115403365521,-0.00398461903818514,1,15.5,29.9
0.933333333333333,11.8294433005823,15.3802623579425,6.88717026559498,-0.0039837680602286,1,15.5,29.9
0.966666666666667,11.8313158594304,15.6097606757628,6.88318733720101,-0.0039829283939623,1,15.5,29.9
1,11.8332418291901,15.8391257965929,6.87920524550043,-0.00398209170058905,1,15.5,29.9
1.03333333333333,11.8352205830242,16.0683577407958,6.87522399345151,-0.00398125204891375,1,15.5,29.9
1.06666666666667,11.8372516774947,16.2974565276871,6.87124358718765,-0.00398040626385754,1,15.5,29.9
1.1,11.8393348589707,16.5264221753688,6.86726403348558,-0.00397955370207548,1,15.5,29.9
1.13333333333333,11.8414700315396,16.7552547008402,6.86328533788451,-0.00397869560106567,1,15.5,29.9
1.16666666666667,11.8436572033884,16.9839541203035,6.85930750364459,-0.00397783423992681,1,15.5,29.9
1.2,11.8458964286011,17.2125204495548,6.85533053150913,-0.00397697213545101,1,15.5,29.9
1.23333333333333,11.8481877578094,17.4409537043554,6.85135442008463,-0.00397611142450494,1,15.5,29.9
1.26666666666667,11.8505312056751,17.669253900708,6.84737916658409,-0.00397525350054284,1,15.5,29.9
1.3,11.8529267374113,17.8974210549983,6.84340476767914,-0.00397439890494766,1,15.5,29.9
1.33333333333333,11.8553742717735,18.1254551840025,6.83943122025105,-0.00397354742808442,1,15.5,29.9
1.36666666666667,11.8578736949791,18.3533563047944,6.83545852190358,-0.0039726983474786,1,15.5,29.9
1.4,11.8604248790405,18.5811244345991,6.83148667118361,-0.00397185071996198,1,15.5,29.9
1.43333333333333,11.8630276987509,18.8087595906433,6.8275156675327,-0.00397100365091241,1,15.5,29.9
1.46666666666667,11.8656820434335,19.0362617900427,6.82354551104752,-0.00397015648518018,1,15.5,29.9
1.5,11.86838782185,19.2636310497469,6.81957620215301,-0.00396930889451408,1,15.5,29.9
1.53333333333333,11.8711449607445,19.4908673865454,6.81560774128647,-0.00396846086654268,1,15.5,29.9
1.56666666666667,11.8739533989315,19.7179708171202,6.81164012866401,-0.00396761262245793,1,15.5,29.9
1.6,11.8768130794645,19.944941358124,6.80767336416336,-0.00396676450064515,1,15.5,29.9
1.63333333333333,11.879723942283,20.1717790262583,6.80370744732128,-0.00396591684208047,1,15.5,29.9
1.66666666666667,11.8826859190607,20.3984838383342,6.79974237741748,-0.00396506990380097,1,15.5,29.9
1.7,11.8856989310467,20.6250558113013,6.7957781536037,-0.00396422381378514,1,15.5,29.9
1.73333333333333,11.8887628897905,20.8514949622455,6.79181477503593,-0.00396337856776263,1,15.5,29.9
1.76666666666667,11.8918776999741,21.077801308361,6.78785224097719,-0.00396253405874081,1,15.5,29.9
1.8,11.8950432632446,21.3039748669074,6.78389055085256,-0.00396169012463066,1,15.5,29.9
1.83333333333333,11.8982594819452,21.5300156551652,6.77992970425407,-0.00396084659849194,1,15.5,29.9
1.86666666666667,11.9015232812057,21.7556926380084,6.76210569248011,-0.0178240117739588,1,15.5,29.9
1.9,11.9048280797592,21.9805154316367,6.72872002916806,-0.0333856633120471,3,15.5,29.9
1.93333333333333,11.9081685210294,22.2041092525834,6.68840737238555,-0.0403126567825129,3,15.5,29.9
1.96666666666667,11.9115412644052,22.4262723053077,6.64291310510719,-0.0454942672783636,3,15.5,29.9
2,11.9149439240258,22.6468896670865,6.59570447672,-0.0472086283871853,3,15.5,29.9
2.03333333333333,11.918373520999,22.8658751596624,6.545038221975,-0.0506662547450052,3,15.5,29.9
2.06666666666667,11.9218214975071,23.0829984598944,6.48400483196548,-0.0610333900095146,3,15.5,29.9
2.1,11.9252756304147,23.2979141625562,6.41260602622324,-0.0713988057422403,3,15.5,29.9
2.13333333333333,11.928726644596,23.5103633607648,6.33603181662952,-0.0765742095937219,3,15.5,29.9
2.16666666666667,11.9321663710701,23.7200294058304,6.24562931335224,-0.0904025032772786,3,15.5,29.9
2.2,11.9355862221703,23.9264805309219,6.14314460884852,-0.102484704503721,3,15.5,29.9
2.23333333333333,11.9389801904895,24.1294579604388,6.03721199403186,-0.105932614816664,3,15.5,29.9
2.26666666666667,11.9423436946954,24.3289333175895,5.93302054195574,-0.104191452076117,3,15.5,29.9
2.3,11.9456729311358,24.524878597518,5.82540415708612,-0.107616384869623,3,15.5,29.9
2.33333333333333,11.9489633522313,24.7171793447536,5.71434157625968,-0.111062580826437,3,15.5,29.9
2.36666666666667,11.9522074358418,24.9056630340898,5.59636724129999,-0.117974334959692,3,15.5,29.9
2.4,11.9553957289183,25.0901575640687,5.47496989150005,-0.121397349799939,3,15.5,29.9
2.43333333333333,11.9585184132764,25.2704908653592,5.34666238349094,-0.128307508009108,3,15.5,29.9
2.46666666666667,11.9615671797158,25.4464618026311,5.21318965934269,-0.133472724148248,3,15.5,29.9
2.5,11.9645359345341,25.6180138534049,5.08148460342699,-0.131705055915702,3,15.5,29.9
2.53333333333333,11.9674196126561,25.7851479001533,4.94805947137029,-0.133425132056693,3,15.5,29.9
2.56666666666667,11.9702152633833,25.9478357244424,4.81465849598692,-0.133400975383378,3,15.5,29.9
2.6,11.9729228864963,26.1060781294079,4.68128170374777,-0.133376792239145,3,15.5,29.9
2.63333333333333,11.9755436865626,26.2598471879944,4.54620688580937,-0.135074817938406,3,15.5,29.9
2.66666666666667,11.9780779436438,26.4089984402468,4.40413737211536,-0.142069513694008,3,15.5,29.9
2.7,11.9805249293835,26.5532976758956,4.25504766453945,-0.149089707575905,3,15.5,29.9
2.73333333333333,11.9828849801428,26.6925690746852,4.10242856216098,-0.15261910237847,3,15.5,29.9
2.76666666666667,11.9851596971652,26.8267246003759,3.94805741242489,-0.154371149736096,3,15.5,29.9
2.8,11.9873512460196,26.9557349327944,3.79368027440911,-0.154377138015773,3,15.5,29.9
2.83333333333333,11.9894612236791,27.0795714380502,3.63759200483707,-0.156088269572041,3,15.5,29.9
2.86666666666667,11.9914905399007,27.1982059790175,3.48152704182314,-0.156064963013932,3,15.5,29.9
2.9,11.9934403132184,27.3116681744158,3.32721618545845,-0.154310856364693,3,15.5,29.9
2.93333333333333,11.9953123568209,27.4200743542218,3.17813140089242,-0.149084784566027,3,15.5,29.9
2.96666666666667,11.9971092451543,27.5236274728383,3.0359983549795,-0.14213304591292,3,15.5,29.9
3,11.9988315258385,27.6224441205698,2.89390843639586,-0.142089918583642,3,15.5,29.9
3.03333333333333,12.0004783874805,27.7165835497686,2.75532907371502,-0.138579362680843,3,15.5,29.9
3.06666666666667,12.002050305727,27.8061915041289,2.62198286683368,-0.133346206881334,3,15.5,29.9
3.1,12.0035478063172,27.8914137290278,2.4921474063148,-0.129835460518883,3,15.5,29.9
3.13333333333333,12.0049716733398,27.9723959521987,2.36754431283348,-0.124603093481322,3,15.5,29.9
3.16666666666667,12.0063241092763,28.0493412653694,2.24989479841972,-0.117649514413753,3,15.5,29.9
3.2,12.0076078749963,28.1224546325654,2.1376934481628,-0.112201350256924,3,15.5,29.9
3.23333333333333,12.0088239156051,28.1918186352995,2.0251077062186,-0.112585741944202,3,15.5,29.9
3.26666666666667,12.0099714559296,28.2574367598443,1.91297490953653,-0.112132796682065,3,15.5,29.9
3.3,12.0110496752168,28.3192995979586,1.79976755019054,-0.113207359345991,3,15.5,29.9
3.33333333333333,12.012057141294,28.3773719963516,1.68549855451622,-0.114268995674317,3,15.5,29.9
3.36666666666667,12.0129927940942,28.4316177265111,1.57012426927732,-0.115374285238904,3,15.5,29.9
3.4,12.0138559294195,28.4819993690053,1.45361053313678,-0.116513736140542,3,15.5,29.9
3.43333333333333,12.0146452822172,28.5284498632568,1.33421585045248,-0.119394682684298,3,15.5,29.9
3.46666666666667,12.0153594040983,28.5708733925776,1.21194950094839,-0.122266349504086,3,15.5,29.9
3.5,12.0159971863183,28.6091741531867,1.08681144646248,-0.125138054485912,3,15.5,29.9
3.53333333333333,12.0165587615121,28.6433151579958,0.962352084620428,-0.124459361842054,3,15.5,29.9
3.56666666666667,12.0170454832054,28.6733226514302,0.838783329470375,-0.123568755150053,3,15.5,29.9
3.6,12.0174593287324,28.6992560603604,0.717851402680361,-0.120931926790015,3,15.5,29.9
3.63333333333333,12.0178022346102,28.7211729550279,0.597746355273008,-0.120105047407353,3,15.5,29.9
3.66666666666667,12.0180760577365,28.7391298273752,0.480231838159039,-0.11751451711397,3,15.5,29.9
3.7,12.0182821040155,28.7531566005133,0.361915830052076,-0.118316008106963,3,15.5,29.9
3.73333333333333,12.0184215690673,28.7632841787401,0.246244454459726,-0.11567137559235,3,15.5,29.9
3.76666666666667,12.0184944992691,28.7694842946801,0.126271945952702,-0.119972508507024,3,15.5,29.9
3.8,12.0184993757366,28.7716457862288,0.00481730209442038,-0.121454643858282,3,15.5,29.9
3.83333333333333,12.0184641429732,28.7714054262741,0.00768227458311074,0.00286497248869036,5,15.5,29.9
3.86666666666667,12.0184295786728,28.7711650545457,0.00164377106792216,-0.00603850351518859,5,15.5,29.9
3.9,12.0184295786728,28.7711650545457,0.00026204727795229,-0.00138172378996987,5,15.5,29.9
3.93333333333333,12.0184295786728,28.7711650545457,0.00160535405523036,0.00134330677727807,5,15.5,29.9
3.96666666666667,12.0184295786728,28.7711650545457,0.00379177369738537,0.00218641964215501,5,15.5,29.9
4,12.0184295786728,28.7711650545457,0.00609607566447084,0.00230430196708547,5,15.5,29.9
4.03333333333333,12.0184295786728,28.7711650545457,0.00830785120471074,0.0022117755402399,5,15.5,29.9
4.06666666666667,12.0184295786728,28.7711650545457,0.0102298081132399,0.00192195690852916,5,15.5,29.9
4.1,12.0184295786728,28.7711650545457,0.0116958944036427,0.00146608629040281,5,15.5,29.9
4.13333333333333,12.0184295786728,28.7711650545457,0.0125842775102784,0.000888383106635698,5,15.5,29.9
4.16666666666667,12.0184295786728,28.7711650545457,0.0128248461062166,0.000240568595938205,5,15.5,29.9
4.2,12.0184295786728,28.7711650545457,0.0124013853026677,-0.000423460803548941,5,15.5,29.9
4.23333333333333,12.0184295786728,28.7711650545457,0.011348971885223,-0.00105241341744468,5,15.5,29.9
4.26666666666667,12.0184295786728,28.7711650545457,0.00974742928387566,-0.00160154260134733,5,15.5,29.9
4.3,12.0184295786728,28.7711650545457,0.00771186695015075,-0.00203556233372491,5,15.5,29.9
4.33333333333333,12.0184295786728,28.7711650545457,0.0053814091062401,-0.00233045784391065,5,15.5,29.9
4.36666666666667,12.0184295786728,28.7711650545457,0.00290720378235797,-0.00247420532388213,5,15.5,29.9
4.4,12.0184295786728,28.7711650545457,0.000440710127856523,-0.00246649365450145,5,15.5,29.9
4.43333333333333,12.0184295786728,28.7711650545457,0.00187689116344685,0.00143618103559033,5,15.5,29.9
4.46666666666667,12.0184295786728,28.7711650545457,0.00392351277489539,0.00204662161144854,5,15.5,29.9
4.5,12.0184295786728,28.7711650545457,0.00560276312987791,0.00167925035498252,5,15.5,29.9
4.53333333333333,12.0184295786728,28.7711650545457,0.00684811401080475,0.00124535088092684,5,15.5,29.9
4.56666666666667,12.0184295786728,28.7711650545457,0.00762461341878686,0.000776499407982115,5,15.5,29.9
4.6,12.0184295786728,28.7711650545457,0.00792829992967105,0.00030368651088419,5,15.5,29.9
4.63333333333333,12.0184295786728,28.7711650545457,0.00778361646749933,-0.00014468346217172,5,15.5,29.9
4.66666666666667,12.0184295786728,28.7711650545457,0.00714061491423122,-0.000643001553268112,5,15.5,29.9
4.7,12.0184442580416,28.7720325392114,0.0520587235613377,0.0449181086471065,4,15.5,29.9
4.73333333333333,12.0184878261698,28.7746072321289,0.102770016008602,0.0507112924472644,4,15.5,29.9
4.76666666666667,12.0185599235448,28.7788680401252,0.152870684338293,0.0501006683296914,4,15.5,29.9
4.8,12.0186600297339,28.7847845791564,0.202005899112722,0.0491352147744282,4,15.5,29.9
4.83333333333333,12.0187875115717,28.7923200967005,0.249994666835186,0.0479887677224645,4,15.5,29.9
4.86666666666667,12.0189416775522,28.8014347520866,0.296801782601894,0.0468071157667082,4,15.5,29.9
4.9,12.0191218426652,28.8120897970484,0.34247909079883,0.0456773081969353,4,15.5,29.9
4.93333333333333,12.0193273171124,28.8242484153833,0.387072463527401,0.0445933727285714,4,15.5,29.9
4.96666666666667,12.0195573779564,28.8378753461575,0.430620266488905,0.0435478029615042,4,15.5,29.9
5,12.0198112358902,28.8529365860715,0.473154802196009,0.0425345357071033,4,15.5,29.9
5.03333333333333,12.0200879734738,28.8693988989778,0.514686579177119,0.0415317769811104,4,15.5,29.9
5.06666666666667,12.0203865260784,28.8872290362237,0.5552139202541,0.0405273410769806,4,15.5,29.9
5.1,12.020705634059,28.9063937262275,0.594742864467246,0.0395289442131461,4,15.5,29.9
5.13333333333333,12.021043862238,28.9268599071835,0.633285272844433,0.0385424083771875,4,15.5,29.9
5.16666666666667,12.0213995565214,28.9485948977599,0.67085653307066,0.0375712602262269,4,15.5,29.9
5.2,12.0217708605119,28.9715665569533,0.707479771051571,0.0366232379809104,4,15.5,29.9
5.23333333333333,12.0221555389406,28.9957440629917,0.743213342355067,0.0357335713034961,4,15.5,29.9
5.26666666666667,12.0225508827275,29.0210990204047,0.778161315143933,0.0349479727888667,4,15.5,29.9
5.3,12.0229540474115,29.0476130062892,0.812940898152723,0.0347795830087899,4,15.5,29.9
5.33333333333333,12.0233626253135,29.0753034286961,0.849067182826967,0.0361262846742436,4,15.5,29.9
5.36666666666667,12.0237752768974,29.1042473361949,0.88845879911877,0.0393916162918029,4,15.5,29.9
5.4,12.024191989133,29.1345826785472,0.932806041667572,0.044347242548802,4,15.5,29.9
5.43333333333333,12.0246140294928,29.1664979704693,0.983453578532465,0.050647536864893,4,15.5,29.9
5.46666666666667,12.0250439857034,29.2002220222339,1.04148586654494,0.0580322880124713,4,15.5,29.9
5.5,12.0254856384365,29.2360150201366,1.10767759312963,0.0661917265846905,4,15.5,29.9
5.53333333333333,12.0259436395359,29.2741559959484,1.18239462846534,0.0747170353357134,4,15.5,29.9
5.56666666666667,12.0264236661765,29.3149316593067,1.26576659194043,0.0833719634750856,4,15.5,29.9
5.6,12.0269321255889,29.3586300292417,1.35771907595949,0.0919524840190609,4,15.5,29.9
5.63333333333333,12.0274758423433,29.405530938436,1.45783984345947,0.100120767499984,4,15.5,29.9
5.66666666666667,12.0280618749615,29.4558970612277,1.56555294656325,0.107713103103782,4,15.5,29.9
5.7,12.0286975470672,29.5099723396038,1.68033408174813,0.114781135184882,4,15.5,29.9
5.73333333333333,12.0293895215781,29.5679843143463,1.80169893448651,0.121364852738376,4,15.5,29.9
5.76666666666667,12.0301436184492,29.6301427604326,1.92904592107311,0.127346986586601,4,15.5,29.9
5.8,12.0309639880885,29.6966357937191,2.06169216422625,0.132646243153136,4,15.5,29.9
5.83333333333333,12.0318526591158,29.7676266872028,2.19878289481771,0.137090730591462,4,15.5,29.9
5.86666666666667,12.0328093122473,29.8432462242293,2.33927259826271,0.140489703444999,4,15.5,29.9
5.9,12.0338313369096,29.9235913641848,2.48219489150309,0.14292229324038,4,15.5,29.9
5.93333333333333,12.0349141671193,30.0087289272131,2.62671150166794,0.14451661016485,4,15.5,29.9
5.96666666666667,12.0360519685316,30.0987005009093,2.77215391616513,0.145442414497197,4,15.5,29.9
6,12.0372385165337,30.1935289859738,2.91809179830057,0.145937882135436,4,15.5,29.9
6.03333333333333,12.0384678870633,30.293228518882,3.06441990191423,0.146328103613655,4,15.5,29.9
6.06666666666667,12.0397349532388,30.3978128988781,3.2112016682726,0.146781766358379,4,15.5,29.9
6.1,12.0410356481423,30.5072994664292,3.35857445477876,0.147372786506153,4,15.5,29.9
6.13333333333333,12.0423674574371,30.6217105926856,3.50670166567571,0.148127210896949,4,15.5,29.9
6.16666666666667,12.0437308781625,30.741074263397,3.65575646720997,0.149054801534266,4,15.5,29.9
6.2,12.0451291593654,30.8654243735423,3.80591821727508,0.150161750065106,4,15.5,29.9
6.23333333333333,12.0465670560019,30.9947995111257,3.95727190815198,0.151353690876907,4,15.5,29.9
6.26666666666667,12.0480482041244,31.1292400379617,4.10985876461466,0.152586856462672,4,15.5,29.9
6.3,12.0495743868265,31.2687873362014,4.26368490632669,0.153826141712034,4,15.5,29.9
6.33333333333333,12.0511455538814,31.4134816095847,4.41866512344199,0.154980217115304,4,15.5,29.9
6.36666666666667,12.0527600118641,31.563358126916,4.57458136339317,0.155916239951172,4,15.5,29.9
6.4,12.054413592579,31.7184426072124,4.73108297871392,0.156501615320749,4,15.5,29.9
6.43333333333333,12.0560960343886,31.8787475599847,4.88773334905423,0.15665037034031,4,15.5,29.9
6.46666666666667,12.057792220775,32.0442695585292,5.04399040075673,0.156257051702502,4,15.5,29.9
6.5,12.0594854991458,32.2149852112031,5.19924436548456,0.155253964727835,4,15.5,29.9
6.53333333333333,12.0611571111711,32.3908531584116,5.35303584203224,0.153791476547676,4,15.5,29.9
6.56666666666667,12.0627869274097,32.5718189896689,5.50503405061444,0.151998208582204,4,15.5,29.9
6.6,12.064355127233,32.7578189504746,5.65501019560469,0.149976144990249,4,15.5,29.9
6.63333333333333,12.0658457912646,32.9487833637439,5.80284068648911,0.147830490884421,4,15.5,29.9
6.66666666666667,12.0672493101299,33.1446397056111,5.9484710678332,0.145630381344092,4,15.5,29.9
6.7,12.0685610898811,33.3453133871387,6.09180303369788,0.143331965864675,4,15.5,29.9
6.73333333333333,12.0697795035323,33.5507220374329,6.23246389610757,0.140660862409691,4,15.5,29.9
6.76666666666667,12.0709042480203,33.760773958399,6.37037356754139,0.13790967143382,4,15.5,29.9
6.8,12.0719352620223,33.9753770304804,6.50549199816901,0.135118430627618,4,15.5,29.9
6.83333333333333,12.0728719867133,34.1944380537637,6.63782727225488,0.132335274085867,4,15.5,29.9
6.86666666666667,12.0737122346165,34.4178648234768,6.76743647033543,0.129609198080558,4,15.5,29.9
6.9,12.0744503063872,34.6455708717171,6.89462442147769,0.127187951142258,4,15.5,29.9
6.93333333333333,12.0750793194568,34.8774802345382,7.01963435631981,0.125009934842121,4,15.5,29.9
