Time,x_ego,y_ego,velocity,acceleration,action,x_ped,y_ped
0,11.8,8.9,5,0,1,15.5,29.9
0.0333333333333333,11.8000067059665,9.06666666665147,0,-5,3,15.3694444444444,29.9
0.0666666666666667,11.8000067059665,9.06666666665147,0,0,5,15.2444444444444,29.9
0.1,11.8000067059665,9.06666666665147,0,0,5,15.125,29.9
0.133333333333333,11.8000067059665,9.06666666665147,0,0,5,15.0111111111111,29.9
0.166666666666667,11.8000067059665,9.06666666665147,0,0,5,14.9027777777778,29.9
0.2,11.8000067059665,9.06666666665147,0,0,5,14.8,29.9
0.233333333333333,11.8000067059665,9.06666666665147,0,0,5,14.7027777777778,29.9
0.266666666666667,11.8000067059665,9.06666666665147,0,0,5,14.6111111111111,29.9
0.3,11.8000067059665,9.06666666665147,0,0,5,14.525,29.9
0.333333333333333,11.8000067059665,9.06666666665147,0,0,5,14.4444444444444,29.9
0.366666666666667,11.8000067059665,9.06666666665147,0,0,5,14.3694444444444,29.9
0.4,11.8000067059665,9.06666666665147,0,0,5,14.3,29.9
0.433333333333333,11.8000067059665,9.06666666665147,1.73106956120341e-05,1.73106956120341e-05,5,14.2361111111111,29.9
0.466666666666667,11.8000067059665,9.06666666665147,0.000209285836985167,0.000191975141373133,5,14.1777777777778,29.9
0.5,11.8000067066334,9.06679273462935,0.00246998412254917,0.002260698285564,5,14.125,29.9
0.533333333333333,11.8000067075045,9.06700185074214,0.0101873799601167,0.00771739583756752,5,14.0777777777778,29.9
0.566666666666667,11.8000067106469,9.06758508819806,0.0248633069248774,0.0146759269647607,5,14.0361111111111,29.9
0.6,11.8000067193938,9.06868556956118,0.0411882095171495,0.0163249025922722,5,14,29.9
0.633333333333333,11.8000067410304,9.07041334211049,0.0624740555132728,0.0212858459961233,4,13.9694444444444,29.9
0.666666666666667,11.8000067913489,9.07313313337804,0.100669161136334,0.0381951056230616,4,13.9444444444444,29.9
0.7,11.800006903519,9.07731917354013,0.150397157218623,0.0497279960822887,4,13.925,29.9
0.733333333333333,11.8000071439916,9.08314902221485,0.199255046220594,0.0488578890019709,4,13.9111111111111,29.9
0.766666666666667,11.8000076304227,9.09059015748019,0.247049632412665,0.0477945861920709,4,13.9027777777778,29.9
0.8,11.8000085449069,9.09960568676915,0.293722965347505,0.0466733329348397,4,13.9,29.9
0.833333333333333,11.8000101428648,9.11015885681845,0.339315195913174,0.0455922305656699,4,13.9,29.9
0.866666666666667,11.8000127581868,9.12221429498735,0.383864224596169,0.044549028682995,4,13.9,29.9
0.9,11.8000168042189,9.13573778540903,0.427401543417531,0.043537318821362,4,13.9,29.9
0.933333333333333,11.8000227702516,9.15069607850316,0.469953217181425,0.0425516737638933,4,13.9,29.9
0.966666666666667,11.8000312133351,9.167056520739,0.511525339492986,0.041572122311561,4,13.9,29.9
1,11.8000427454523,9.18478631673104,0.55210950868844,0.0405841691954546,4,13.9,29.9
1.03333333333333,11.8000580163328,9.20385250496039,0.5917054015909,0.0395958929024594,4,13.9,29.9
1.06666666666667,11.8000776925145,9.22422222642997,0.630319670611447,0.0386142690205471,4,13.9,29.9
1.1,11.8001024335547,9.24586292261287,0.667963858607018,0.0376441879955709,4,13.9,29.9
1.13333333333333,11.8001328665476,9.26874249726956,0.704656744466958,0.0366928858599402,4,13.9,29.9
1.16666666666667,11.8001695603335,9.29283003362637,0.740453605653099,0.035796861186141,4,13.9,29.9
1.2,11.8002130009151,9.31809671697527,0.775416451106518,0.0349628454534188,4,13.9,29.9
1.23333333333333,11.8002635694949,9.344515592163,0.809595032204331,0.0341785810978138,4,13.9,29.9
1.26666666666667,11.800321524521,9.37206121134052,0.843030014381303,0.0334349821769712,4,13.9,29.9
1.3,11.800386988931,9.40070937171584,0.875755311847671,0.0327252974663687,4,13.9,29.9
1.33333333333333,11.8004599435426,9.4304369189689,0.907799898338247,0.0320445864905762,4,13.9,29.9
1.36666666666667,11.8005402271987,9.46122142625247,0.93917044784954,0.0313705495112927,4,13.9,29.9
1.4,11.8006275436729,9.49303990849915,0.969833816122499,0.0306633682729586,4,13.9,29.9
1.43333333333333,11.8007214755807,9.52586838537019,0.999767695502569,0.02993387938007,4,13.9,29.9
1.46666666666667,11.8008215049601,9.55968236971948,1.02896280570777,0.0291951102051979,4,13.9,29.9
1.5,11.8009270394559,9.5944571950842,1.05741784978896,0.0284550440811957,4,13.9,29.9
1.53333333333333,11.8010374429292,9.630168285116,1.08513946922679,0.0277216194378238,4,13.9,29.9
1.56666666666667,11.8011520689756,9.66679138213861,1.11213994207508,0.0270004728482942,4,13.9,29.9
1.6,11.8012702955655,9.70430270479041,1.13843570093366,0.0262957588585839,4,13.9,29.9
1.63333333333333,11.8013915589923,9.74267920923345,1.16405805337067,0.0256223524370021,4,13.9,29.9
1.66666666666667,11.8015153853949,9.7818992109577,1.18905269614543,0.0249946427747654,4,13.9,29.9
1.7,11.8016414174231,9.8219424596613,1.21345902368187,0.0244063275364352,4,13.9,29.9
1.73333333333333,11.801769434435,9.86278991174643,1.23731024620326,0.0238512225213909,4,13.9,29.9
1.76666666666667,11.8018993650394,9.90442354908405,1.26063482387022,0.0233245776669588,4,13.9,29.9
1.8,11.80203129102,9.94682623893413,1.28345753376977,0.0228227098995564,4,13.9,29.9
1.83333333333333,11.8021654421931,9.98998162457973,1.30580026444421,0.0223427306744388,4,13.8991319444444,29.9
1.86666666666667,11.8023021823458,10.0338740389566,1.32768260869391,0.0218823442496945,4,13.8965277777778,29.9
1.9,11.8024419870263,10.0784884355678,1.34912230753878,0.021439698844872,4,13.8921875,29.9
1.93333333333333,11.8025854145624,10.1238103261259,1.3701343805728,0.0210120730340249,4,13.8861111111111,29.9
1.96666666666667,11.8027330722031,10.1698256998862,1.39074037423294,0.020605993660139,4,13.8782986111111,29.9
2,11.8028855815612,10.216522388282,1.4110358755157,0.0202955012827601,4,13.86875,29.9
2.03333333333333,11.8030435459734,10.2638924680947,1.43117200534926,0.0201361298335594,4,13.8574652777778,29.9
2.06666666666667,11.8032075199471,10.3119333772849,1.45131369868605,0.020141693336784,4,13.8444444444444,29.9
2.1,11.8033779831657,10.3606479175942,1.47161499838629,0.0203012997002396,4,13.8296875,29.9
2.13333333333333,11.8035553214332,10.4100436683493,1.49220726482561,0.0205922664393197,4,13.8131944444444,29.9
2.16666666666667,11.8037398160852,10.4601321425933,1.51319482002978,0.0209875552041776,4,13.7949652777778,29.9
2.2,11.8039316424853,10.5109278639514,1.53465315869113,0.0214583386613425,4,13.775,29.9
2.23333333333333,11.8041308770033,10.5624472394306,1.55661820178782,0.0219650430966982,4,13.7532986111111,29.9
2.26666666666667,11.8043375115,10.6147073502854,1.57909895287445,0.0224807510866278,4,13.7298611111111,29.9
2.3,11.8045514745527,10.6677252573434,1.60208265426303,0.0229837013885745,4,13.7046875,29.9
2.33333333333333,11.8047726561364,10.72151713098,1.62553028969134,0.0234476354283102,4,13.6777777777778,29.9
2.36666666666667,11.8050009339674,10.7760975907732,1.64939077932084,0.0238604896295074,4,13.6491319444444,29.9
2.4,11.8052361999448,10.8314796834508,1.67362510495788,0.024234325637039,4,13.61875,29.9
2.43333333333333,11.8054783848087,10.8876755434471,1.69821825500549,0.0245931500476031,4,13.5866319444444,29.9
2.46666666666667,11.8057274790863,10.944697489515,1.72320424433948,0.0249859893339937,4,13.5527777777778,29.9
2.5,11.8059835515792,11.002560512118,1.74871639144813,0.0255121471086537,4,13.5171875,29.9
2.53333333333333,11.8062467653454,11.0612859733048,1.77500258420953,0.0262861927613938,4,13.4798611111111,29.9
2.56666666666667,11.8065173897717,11.1209054194304,1.80242826438268,0.0274256801731558,4,13.4407986111111,29.9
2.6,11.8067958101599,11.1814645447002,1.83147135118395,0.029043086801265,4,13.4,29.9
2.63333333333333,11.8070825333753,11.2430260505624,1.86266175765145,0.0311904064674995,4,13.3574652777778,29.9
2.66666666666667,11.8073781877114,11.3056702214976,1.89651256367275,0.0338508060213003,4,13.3131944444444,29.9
2.7,11.8076835168128,11.3694930798501,1.93344669725035,0.0369341335776039,4,13.2671875,29.9
2.73333333333333,11.8079993695499,11.4346029937645,1.97378217196386,0.0403354747135076,4,13.2194444444444,29.9
2.76666666666667,11.8083266889023,11.5011171099291,2.01772579439136,0.0439436224274985,4,13.1699652777778,29.9
2.8,11.8086664989341,11.5691574722814,2.06536281091462,0.0476370165232671,4,13.11875,29.9
2.83333333333333,11.8090198888858,11.6388467509168,2.11664667353384,0.0512838626192123,4,13.0657986111111,29.9
2.86666666666667,11.8093879960324,11.7103043954602,2.17143951993288,0.0547928463990393,4,13.0111111111111,29.9
2.9,11.8097719900694,11.7836441956649,2.22954211435327,0.0581025944203923,4,12.9546875,29.9
2.93333333333333,11.8101730572614,11.8589724815731,2.29070843400234,0.0611663196490713,4,12.8965277777778,29.9
2.96666666666667,11.8105923844106,11.9363867198309,2.35465221883925,0.0639437848369084,4,12.8366319444444,29.9
3,11.8110311425232,12.0159741452814,2.42104902867001,0.0663968098307586,4,12.775,29.9
3.03333333333333,11.8114904740225,12.0978112116968,2.48959406695283,0.0685450382828217,4,12.7116319444444,29.9
3.06666666666667,11.8119714937172,12.1819666695704,2.56015797324999,0.0705639062971599,4,12.6465277777778,29.9
3.1,11.8124752894162,12.2685090405036,2.63284623048974,0.072688257239752,4,12.5796875,29.9
3.13333333333333,11.8130029216221,12.3575124588796,2.70785286019772,0.0750066297079757,4,12.5111111111111,29.9
3.16666666666667,11.8135554426832,12.4490557650851,2.78524047888758,0.0773876186898645,4,12.4407986111111,29.9
3.2,11.8141339099586,12.5432169697038,2.8649048777513,0.0796643988637231,4,12.36875,29.9
3.23333333333333,11.8147394003723,12.6400685325896,2.94662306549253,0.0817181877412261,4,12.2949652777778,29.9
3.26666666666667,11.815373022354,12.739673989939,3.030091318954,0.083468253461469,4,12.2194444444444,29.9
3.3,11.8160359225587,12.8420861409564,3.11497546809176,0.0848841491377601,4,12.1421875,29.9
3.33333333333333,11.816729285465,12.9473464945006,3.20093476009918,0.085959292007419,4,12.0631944444444,29.9
3.36666666666667,11.8174543244748,13.0554852536327,3.28763255566915,0.0866977955699748,4,11.9824652777778,29.9
3.4,11.8182122651994,13.1665212924351,3.37471483216287,0.0870822764937174,4,11.9,29.9
3.43333333333333,11.8190043025214,13.2804576484707,3.46147244281084,0.0867576106479713,4,11.8157986111111,29.9
3.46666666666667,11.8198314627352,13.3972590361301,3.54627649820529,0.0848040553944487,4,11.7298611111111,29.9
3.5,11.8206944188881,13.5168232888021,3.62688028690506,0.0806037886997668,4,11.6421875,29.9
3.53333333333333,11.8215934010217,13.6389751065959,3.70122472527062,0.0743444383655625,4,11.5527777777778,29.9
3.56666666666667,11.8225281789477,13.7634751667043,3.76752850226339,0.066303776992767,4,11.4616319444444,29.9
3.6,11.8234980712763,13.8900334597638,3.82456921204928,0.0570407097858907,4,11.36875,29.9
3.63333333333333,11.8245019930223,14.0183277415787,3.87162966654947,0.0470604545001887,4,11.2741319444444,29.9
3.66666666666667,11.8255384997994,14.1480184322073,3.90832872033696,0.0366990537874909,4,11.1777777777778,29.9
3.7,11.8266058613812,14.2787652223907,3.93523265327589,0.0269039329389362,4,11.0796875,29.9
3.73333333333333,11.8277023085144,14.4102679340941,3.95400743966385,0.0187747863879588,4,10.9798611111111,29.9
3.76666666666667,11.8288261928709,14.5422869736907,3.96654235893847,0.0125349192746214,2,10.8782986111111,29.9
3.8,11.829976051809,14.6746442143063,3.97456621444079,0.00802385550232021,2,10.775,29.9
3.83333333333333,11.8311506164179,14.8072131318479,3.97948448390298,0.00491826946218454,2,10.6699652777778,29.9
3.86666666666667,11.832348845291,14.9399125027398,3.9826174429581,0.00313295905512367,2,10.5631944444444,29.9
3.9,11.8335699741662,15.0727028611848,3.98513929658963,0.0025218536315319,2,10.4546875,29.9
3.93333333333333,11.8348135451809,15.2055810225805,3.98805127575964,0.0029119791700043,2,10.3444444444444,29.9
3.96666666666667,11.8360794210395,15.3385742101313,3.99217903109357,0.00412775533393184,2,10.2324652777778,29.9
4,11.8373677923901,15.4717353250419,3.99827067431018,0.00609164321660804,2,10.11875,29.9
4.03333333333333,11.8386792146168,15.605144092066,4.00718239007403,0.00891171576385652,1,10.0032986111111,29.9
4.06666666666667,11.8400146057389,15.7389046982531,4.0194692998754,0.0122869098013707,1,9.88611111111111,29.9
4.1,11.8413751863219,15.8731374678891,4.03557707421251,0.0161077743371054,1,9.7671875,29.9
4.13333333333333,11.8427624413152,16.0079748957356,4.05581884184754,0.0202417676350288,4,9.64652777777778,29.9
4.16666666666667,11.844178093642,16.1435599392122,4.08046921322623,0.0246503713786925,4,9.52413194444444,29.9
4.2,11.8456240347443,16.2800396050766,4.10947438679638,0.0290051735701446,4,9.4,29.9
4.23333333333333,11.847102213043,16.4175540836526,4.14250486364842,0.0330304768520451,4,9.27413194444444,29.9
4.26666666666667,11.8486145499498,16.5562297053821,4.17907430336812,0.0365694397196963,4,9.14652777777778,29.9
4.3,11.8501628850293,16.6961755106552,4.21864697099547,0.0395726676273496,4,9.0171875,29.9
4.33333333333333,11.8517489465142,16.8374826437336,4.2606904597055,0.0420434887100321,4,8.88611111111111,29.9
4.36666666666667,11.8533743360789,16.9802250701917,4.30470916968405,0.044018709978551,4,8.75329861111111,29.9
4.4,11.8550405220575,17.124460862006,4.35024404189553,0.0455348722114772,4,8.61875,29.9
4.43333333333333,11.8567488390681,17.2702337758395,4.39690171378422,0.046657671888692,4,8.48246527777778,29.9
4.46666666666667,11.8585004983957,17.4175755596235,4.44435098873883,0.0474492749546132,4,8.34444444444444,29.9
4.5,11.8602966015968,17.5665081713502,4.49234110372656,0.0479901149877326,4,8.2046875,29.9
4.53333333333333,11.8621381636018,17.717046554533,4.54069647635275,0.0483553726261832,4,8.06319444444444,29.9
4.56666666666667,11.8640261294739,17.8692004088517,4.58927274173829,0.0485762653855444,4,7.91996527777778,29.9
4.6,11.8659613894666,18.0229755049529,4.63798998412132,0.0487172423830255,4,7.775,29.9
4.63333333333333,11.8679448061455,18.1783759257461,4.68681194484423,0.0488219607229166,4,7.62829861111111,29.9
4.66666666666667,11.8699772231074,18.335404402858,4.73569208851629,0.048880143672057,4,7.47986111111111,29.9
4.7,11.8720594631023,18.4940616719796,4.78455473464785,0.0488626461315596,4,7.3296875,29.9
4.73333333333333,11.8741923261297,18.6543459354471,4.83333600733655,0.0487812726886956,4,7.17777777777778,29.9
4.76666666666667,11.876376604444,18.8162539587185,4.88201122020062,0.0486752128640751,4,7.02413194444444,29.9
4.8,11.8786130965159,18.9797821411904,4.93058346379863,0.0485722435980112,4,6.86875,29.9
4.83333333333333,11.8809026231439,19.1449278097991,4.97911228374913,0.0485288199504952,4,6.71163194444444,29.9
4.86666666666667,11.8832460565782,19.3116915886672,5.02773404456317,0.0486217608140374,4,6.55277777777778,29.9
4.9,11.885644346096,19.4800793563343,5.07661485183907,0.0488808072759062,4,6.3921875,29.9
4.93333333333333,11.888098519634,19.6501021301604,5.12589458162345,0.0492797297843772,4,6.22986111111111,29.9
4.96666666666667,11.8906096767677,19.8217752264889,5.17568933914255,0.0497947575191002,4,6.06579861111111,29.9
5,11.893178980697,19.9951173611551,5.22609759324955,0.0504082541069968,4,5.9,29.9
5.03333333333333,11.8958076738035,20.1701515738344,5.27729439920544,0.0511968059558923,4,5.9,29.9
5.06666666666667,11.8984971228937,20.3469083052595,5.32952193273066,0.0522275335252225,4,5.9,29.9
5.1,11.9012487956488,20.5254231433339,5.38280350411659,0.0532815713859272,4,5.9,29.9
5.13333333333333,11.9040641471731,20.7057280860001,5.43693016066932,0.0541266565527367,4,5.9,29.9
5.16666666666667,11.9069445512529,20.8878466475548,5.49161991944461,0.0546897587752886,4,5.9,29.9
5.2,11.9098912792405,21.0717928090636,5.54659049358105,0.0549705741364397,4,5.9,29.9
5.23333333333333,11.9129054991037,21.2575716009654,5.60159012443622,0.0549996308551659,4,5.9,29.9
5.26666666666667,11.9159882827226,21.4451803328372,5.65640795362418,0.0548178291879626,4,5.9,29.9
5.3,11.91914061577,21.6346099830033,5.71087450826295,0.0544665546387648,4,5.9,29.9
5.33333333333333,11.9223634031605,21.8258462167811,5.76482112338216,0.0539466151192158,4,5.9,29.9
5.36666666666667,11.9256574317546,22.0188675001538,5.81799865013727,0.053177526755106,4,5.9,29.9
5.4,11.9290233651976,22.2136453538894,5.87025854065926,0.0522598905219969,4,5.9,29.9
5.43333333333333,11.9324617924355,22.4101480078131,5.92154097667211,0.0512824360128494,4,5.9,29.9
5.46666666666667,11.9359732556831,22.6083424748311,5.97182766669182,0.0502866900197088,4,5.9,29.9
5.5,11.9395582641497,22.8081955321468,6.02112042417165,0.0492927574798259,4,5.9,29.9
5.53333333333333,11.9432173017923,23.0096742036139,6.06943114847603,0.0483107243043799,4,5.9,29.9
5.56666666666667,11.9469508322419,23.2127459885934,6.11677438921869,0.0473432407426593,4,5.9,29.9
5.6,11.9507592680697,23.4173769315328,6.16298152167607,0.0462071324573774,4,5.9,29.9
5.63333333333333,11.9546428095545,23.6235221244428,6.20763919163327,0.0446576699572008,4,5.9,29.9
5.66666666666667,11.9586014239399,23.8311249587452,6.250477153988,0.0428379623547377,4,5.9,29.9
5.7,11.9626349223623,24.0401221653584,6.29135835671887,0.040881202730862,4,5.9,29.9
5.73333333333333,11.9667430173717,24.2504475464589,6.33023804754408,0.038879690825218,4,5.9,29.9
5.76666666666667,11.9709253628714,24.4620345307749,6.36713666033702,0.0368986127929372,4,5.9,29.9
5.8,11.9751838899449,24.6749440980628,6.41297792370363,0.0458412633666061,4,5.9,29.9
5.83333333333333,11.9795276919121,24.8896251454734,6.47205468478431,0.0590767610806866,4,5.9,29.9
5.86666666666667,11.9839636952431,25.1063954620813,6.53756158984258,0.0655069050582693,4,5.9,29.9
5.9,11.9884957892433,25.3253970986133,6.60554221904879,0.0679806292062075,4,5.9,29.9
5.93333333333333,11.9931261608031,25.5466724748065,6.67380892868318,0.068266709634389,4,5.9,29.9
5.96666666666667,11.9978560530421,25.7702082499868,6.74111403935018,0.0673051106670028,4,5.9,29.9
6,12.0026861956362,25.9959609467608,6.80686451306764,0.0657504737174541,4,5.9,29.9
6.03333333333333,12.0076170998336,26.2238747759684,6.87087258001764,0.064008066950004,4,5.9,29.9
6.06666666666667,12.0126492138005,26.453891584636,6.93315979963401,0.0622872196163673,4,5.9,29.9
6.1,12.0177829910057,26.685955766912,6.99384321431568,0.0606834146816677,4,5.9,29.9
6.13333333333333,12.0230189123874,26.9200162881635,7.05307322665453,0.0592300123388503,4,5.9,29.9
6.16666666666667,12.0283574905511,27.1560273012573,7.11100798731071,0.0579347606561846,4,5.9,29.9
6.2,12.0337992697015,27.3939481103788,7.16779510778619,0.0567871204754793,4,5.9,29.9
6.23333333333333,12.0393448216119,27.6337426085227,7.22356271802988,0.0557676102436915,4,5.9,29.9
6.26666666666667,12.0449947457435,27.8753787009099,7.27842382053223,0.0548611025023442,4,5.9,29.9
6.3,12.0507496723045,28.1188277768375,7.33247369929822,0.0540498787659924,4,5.9,29.9
6.33333333333333,12.0566102619708,28.3640640482686,7.38578567109127,0.0533119717930486,4,5.9,29.9
6.36666666666667,12.0625772003945,28.6110637597933,7.43840940430678,0.0526237332155128,4,5.9,29.9
6.4,12.0686511914509,28.85980449975,7.49037651757365,0.0519671132668709,4,5.9,29.9
6.43333333333333,12.0748329515749,29.1102647254599,7.54170960337303,0.0513330857993788,4,5.9,29.9
6.46666666666667,12.0811232006306,29.3624232853991,7.5923998509244,0.0506902475513673,4,5.9,29.9
6.5,12.0875226288162,29.6162580377337,7.64241016986697,0.0500103189425714,4,5.9,29.9
6.53333333333333,12.0940318999045,29.8717461155733,7.69173979082817,0.0493296209612009,4,5.9,29.9
6.56666666666667,12.1006516888262,30.1288656324585,7.74044529669438,0.0487055058662111,4,5.9,29.9
6.6,12.1073827043766,30.3875966938176,7.78857972225414,0.0481344255597609,4,5.9,29.9
6.63333333333333,12.1142256703787,30.6479206399464,7.83615961356765,0.0475798913135064,4,5.9,29.9
6.66666666666667,12.121181293564,30.9098187528674,7.88317471993244,0.047015106364789,4,5.9,29.9
6.7,12.1282502610718,31.1732721685055,7.92962670331828,0.0464519833858432,4,5.9,29.9
6.73333333333333,12.1354332477134,31.4382621626035,7.97552134363273,0.04589464031445,4,5.9,29.9
6.76666666666667,12.1427309189882,31.7047702502712,8.02086741215155,0.0453460685188238,4,5.9,29.9
