Time,x_ego,y_ego,velocity,acceleration,action,x_ped,y_ped
0,11.8,15.9,7,0,1,15.5,29.9
0.0333333333333333,11.8,16.1332703793943,6.99615577953002,-0.00384422046998356,1,15.5,29.9
0.0666666666666667,11.8,16.3664065988113,6.99196947109348,-0.00418630843653833,1,15.5,29.9
0.1,11.8,16.5994007552791,6.98769498718995,-0.00427448390352669,1,15.5,29.9
0.133333333333333,11.8,16.8322537852842,6.9834976545359,-0.00419733265404787,1,15.5,29.9
0.166666666666667,11.8,17.0649678802301,6.97935585456763,-0.00414179996826913,1,15.5,29.9
0.2,11.8,17.2975446186632,6.97525409491249,-0.00410175965514537,1,15.5,29.9
0.233333333333333,11.8,17.5299851399444,6.97118127319767,-0.00407282171482137,1,15.5,29.9
0.266666666666667,11.8,17.7622902687052,6.96712943294736,-0.00405184025031069,1,15.5,29.9
0.3,11.8,17.9944606040335,6.96309287213007,-0.00403656081728965,1,15.5,29.9
0.333333333333333,11.8,18.2264965833863,6.95906750439986,-0.00402536773020401,1,15.5,29.9
0.366666666666667,11.8,18.4583985283897,6.95505040137947,-0.00401710302039238,1,15.5,29.9
0.4,11.8,18.6901666776599,6.95103946463339,-0.00401093674607722,1,15.5,29.9
0.433333333333333,11.8,18.9218012103233,6.94703319054231,-0.00400627409108711,1,15.5,29.9
0.466666666666667,11.8,19.1533022628712,6.94303050173604,-0.00400268880626342,1,15.5,29.9
0.5,11.8,19.3846699412377,6.93903062623031,-0.00399987550573222,1,15.5,29.9
0.533333333333333,11.8,19.6159043294559,6.93503301077307,-0.00399761545723631,1,15.5,29.9
0.566666666666667,11.8,19.8470054958598,6.93103725873891,-0.00399575203416092,1,15.5,29.9
0.6,11.8,20.0779734975296,6.92704308564579,-0.003994173093127,1,15.5,29.9
0.633333333333333,11.8,20.3088083834769,6.92305028732138,-0.00399279832440236,1,15.5,29.9
0.666666666666667,11.8,20.539510196927,6.91905871714157,-0.00399157017981544,1,15.5,29.9
0.7,11.8,20.7700789769551,6.91506826976362,-0.00399044737794529,1,15.5,29.9
0.733333333333333,11.8,21.0005147596581,6.91107886949752,-0.00398940026610006,1,15.5,29.9
0.766666666666667,11.8,21.2308175789948,6.90709046198042,-0.00398840751710594,1,15.5,29.9
0.8,11.8,21.460987467388,6.90310300819923,-0.00398745378118903,1,15.5,29.9
0.833333333333333,11.7999975407411,21.6910244561532,6.89911648321956,-0.00398652497967333,1,15.5,29.9
0.866666666666667,11.7999821349444,21.9209285757315,6.89513089156305,-0.00398559165650081,1,15.5,29.9
0.9,11.7999454064902,22.1506998555352,6.8911462424014,-0.00398464916165775,1,15.5,29.9
0.933333333333333,11.7998829897685,22.3803383236839,6.88716251985084,-0.00398372255055435,1,15.5,29.9
0.966666666666667,11.7997933547023,22.6098440070774,6.88317969070445,-0.00398282914639569,1,15.5,29.9
1,11.7996767418606,22.8392169318123,6.87919772197361,-0.0039819687308329,1,15.5,29.9
1.03333333333333,11.7995343382955,23.0684571237137,6.87521659173081,-0.003981130242801,1,15.5,29.9
1.06666666666667,11.7993677258366,23.2975646087723,6.87123629074334,-0.00398030098746815,1,15.5,29.9
1.1,11.799178566422,23.5265394133987,6.86725681874344,-0.00397947199990956,1,15.5,29.9
1.13333333333333,11.7989684556738,23.7553815645074,6.86327817964398,-0.00397863909945251,1,15.5,29.9
1.16666666666667,11.798738871149,23.9840910894844,6.85930037808243,-0.00397780156155481,1,15.5,29.9
1.2,11.7984911561913,24.2126680160922,6.85532341780045,-0.00397696028197547,1,15.5,29.9
1.23333333333333,11.7982265036651,24.4411123723454,6.85134730138228,-0.00397611641817086,1,15.5,29.9
1.26666666666667,11.7979459271466,24.6694241863765,6.84737203064681,-0.0039752707354701,1,15.5,29.9
1.3,11.7976494382641,24.8976034856383,6.84339763878645,-0.00397439186036319,1,15.5,29.9
1.33333333333333,11.7973326196312,25.1256502933966,6.83942420805999,-0.00397343072646006,1,15.5,29.9
1.36666666666667,11.7969845810429,25.3535646250586,6.83545183917034,-0.0039723688896478,1,15.5,29.9
1.4,11.7965899638312,25.5813464873325,6.83148064854486,-0.00397119062547535,1,15.5,29.9
1.43333333333333,11.7961312451605,25.8089958773823,6.8275107754306,-0.00396987311426056,1,15.5,29.9
1.46666666666667,11.7955895073938,26.0365127797293,6.82354244156784,-0.00396833386276363,1,15.5,29.9
1.5,11.7949451555933,26.2638971622906,6.81957565428718,-0.00396678728066302,1,15.5,29.9
1.53333333333333,11.7941870995633,26.4911489876892,6.81561004018153,-0.00396561410565077,1,15.5,29.9
1.56666666666667,11.7933122502508,26.7182682191102,6.81164518813036,-0.00396485205116903,1,15.5,29.9
1.6,11.7923225470897,26.945254824423,6.80768078833596,-0.00396439979439389,1,15.5,29.9
1.63333333333333,11.791222684558,27.1721087799024,6.8037166883936,-0.00396409994236269,1,15.5,29.9
1.66666666666667,11.790018564735,27.3988300723007,6.79975287342879,-0.00396381496480736,1,15.5,29.9
1.7,11.7887163544001,27.6254186990326,6.79578941248497,-0.0039634609438286,1,15.5,29.9
1.73333333333333,11.7873219648367,27.8518746668789,6.79182640683696,-0.00396300564800978,1,15.5,29.9
1.76666666666667,11.7858407789177,28.0781979897906,6.78786395657927,-0.00396245025768938,1,15.5,29.9
1.8,11.784277495627,28.3043886862811,6.78390214635397,-0.00396181022529785,1,15.5,29.9
1.83333333333333,11.7826360203769,28.5304467767524,6.77994104384495,-0.00396110250901671,1,15.5,29.9
1.86666666666667,11.7809193802266,28.756372281013,6.77598070373321,-0.00396034011173718,1,15.5,29.9
1.9,11.7791296751433,28.9821652162087,6.77202117192726,-0.00395953180595843,1,15.5,29.9
1.93333333333333,11.7772680872082,29.2078255953588,6.76806248766797,-0.00395868425928292,1,15.5,29.9
1.96666666666667,11.7753349631544,29.433353426629,6.76410468331342,-0.00395780435455784,1,15.5,29.9
2,11.773329969439,29.658748713377,6.76014778280735,-0.00395690050606401,1,15.5,29.9
2.03333333333333,11.7712523013675,29.8840114548911,6.75619180010611,-0.00395598270123987,1,15.5,29.9
2.06666666666667,11.7691017323483,30.1091416537181,6.7522365844426,-0.00395521566351142,1,15.5,29.9
2.1,11.76688146925,30.3341393389816,6.74828193587597,-0.00395464856662642,1,15.5,29.9
2.13333333333333,11.764597546918,30.5590045670923,6.74432777935394,-0.00395415652203734,1,15.5,29.9
2.16666666666667,11.7622569582902,30.7837374102076,6.74037426876512,-0.00395351058881488,1,15.5,29.9
2.2,11.7598641020716,31.0083379319535,6.7364222939668,-0.00395197479832099,1,15.5,29.9
2.23333333333333,11.7574208262446,31.2328062360172,6.7324748880006,-0.0039474059661968,1,15.5,29.9
2.26666666666667,11.7549273495536,31.4571425352329,6.72853638575912,-0.00393850224148284,1,15.5,29.9
2.3,11.7523829733006,31.6813471836043,6.72461137876239,-0.00392500699673359,1,15.5,29.9
2.33333333333333,11.749786556976,31.9054206769743,6.72070404985926,-0.00390732890312595,1,15.5,29.9
2.36666666666667,11.7471367921249,32.1293636348355,6.71681772858561,-0.00388632127364996,1,15.5,29.9
2.4,11.744432337816,32.3531767675994,6.7129546152618,-0.00386311332380984,1,15.5,29.9
2.43333333333333,11.7416718831421,32.5768608418404,6.70911597804658,-0.00383863721521838,1,15.5,29.9
2.46666666666667,11.7388541868108,32.8004166547355,6.70530241941552,-0.00381355863106503,1,15.5,29.9
2.5,11.7359781212761,33.0238450146368,6.70151399818827,-0.00378842122725054,1,15.5,29.9
2.53333333333333,11.7330427272643,33.2471467256867,6.69775034808745,-0.00376365010081248,1,15.5,29.9
2.56666666666667,11.7300480398376,33.4703225861034,6.69401070883129,-0.00373963925616749,1,15.5,29.9
2.6,11.726996886699,33.6933734023591,6.69029412320602,-0.00371658562526633,1,15.5,29.9
2.63333333333333,11.7238925446872,33.9162999551398,6.6865994204856,-0.00369470272042438,1,15.5,29.9
2.66666666666667,11.7207399525987,34.1391030082317,6.68292528861449,-0.00367413187111065,1,15.5,29.9
2.7,11.7175426812433,34.3617833636012,6.67929215530611,-0.00363313330837567,1,15.5,29.9
2.73333333333333,11.7143024537112,34.5843486254999,6.67622428843159,-0.00306786687451677,1,15.5,29.9
2.76666666666667,11.7110193880869,34.8068362890065,6.67487370159553,-0.00135058683606193,1,15.5,29.9
2.8,11.7076923094763,35.0293221816441,6.67627467105909,0.00140096946356216,1,15.5,29.9
2.83333333333333,11.7043200362729,35.2519034369925,6.68060280270611,0.00432813164701518,1,15.5,29.9
2.86666666666667,11.7009036596283,35.474673609333,6.68759163711898,0.00698883441287546,1,15.5,29.9
2.9,11.6974436185442,35.6977146814338,6.69681758049743,0.00922594337844806,1,15.5,29.9
2.93333333333333,11.693939211212,35.9210938802894,6.70785369706487,0.0110361165674346,1,15.5,29.9
2.96666666666667,11.690388989878,36.1448653453581,6.72033719607537,0.0124834990105036,1,15.5,29.9
3,11.6867911269626,36.369071863328,6.73395026032383,0.0136130642484558,1,15.5,29.9
3.03333333333333,11.6831437135608,36.5937464259673,6.74842243748259,0.0144721771587655,1,15.5,29.9
3.06666666666667,11.679444971649,36.8189135703525,6.76351324406622,0.015090806583629,1,15.5,29.9
3.1,11.6756933832585,37.0445902659366,6.77901429207316,0.0155010480069357,1,15.5,29.9
3.13333333333333,11.6718877285576,37.2707877398405,6.79479426114718,0.0157799690740186,1,15.5,29.9
3.16666666666667,11.6680270596077,37.4975137545944,6.81076252784251,0.0159682666953334,1,15.5,29.9
3.2,11.664110667365,37.724773018829,6.82682728893299,0.0160647610904805,1,15.5,29.9
3.23333333333333,11.6601380366623,37.9525673730559,6.84291013986117,0.0160828509281759,1,15.5,29.9
3.26666666666667,11.6561087934866,38.1808963759122,6.85895283632903,0.0160426964678644,1,15.5,29.9
3.3,11.6520226577551,38.4097579697307,6.87491493816994,0.0159621018409055,1,15.5,29.9
3.33333333333333,11.6478794119805,38.6391487877694,6.89075546213255,0.0158405239626154,1,15.5,29.9
3.36666666666667,11.6436788863122,38.8690640629855,6.90643360816848,0.0156781460359294,1,15.5,29.9
3.4,11.639420943092,39.0994980061837,6.92193591197714,0.0155023038086561,1,15.5,29.9
3.43333333333333,11.6351054460264,39.3304453080675,6.93730380152138,0.0153678895442448,1,15.5,29.9
