Time,x_ego,y_ego,velocity,acceleration,action,x_ped,y_ped
0,11.8,15.9,5,0,1,15.5,29.9
0.0333333333333333,11.7999933569295,16.066607688827,4.99642264628455,-0.00357735371545065,1,15.3694444444444,29.9
0.0666666666666667,11.7999507397231,16.2330926524405,4.99264795270227,-0.00377469358228133,1,15.2444444444444,29.9
0.1,11.7998468051455,16.3994492905619,4.9887327307045,-0.00391522199777139,1,15.125,29.9
0.133333333333333,11.7996669516127,16.5656735951065,4.98471750485773,-0.00401522584676695,1,15.0111111111111,29.9
0.166666666666667,11.7994054621554,16.7317626956387,4.98063101375243,-0.00408649110530224,1,14.9027777777778,29.9
0.2,11.7990632251381,16.8977145371793,4.97649362738352,-0.0041373863689067,1,14.8,29.9
0.233333333333333,11.7986455093421,17.0635276524682,4.972319859267,-0.00417376811651593,1,14.7027777777778,29.9
0.266666666666667,11.7981600782272,17.2292010003183,4.96812014082674,-0.00419971844026001,1,14.6111111111111,29.9
0.3,11.79761575291,17.3947338496541,4.96390203589034,-0.00421810493640784,1,14.525,29.9
0.333333333333333,11.7970214049739,17.5601256951669,4.95967106248677,-0.00423097340356904,1,14.4444444444444,29.9
0.366666666666667,11.796385290228,17.7253761951964,4.9554312557235,-0.00423980676326341,1,14.3694444444444,29.9
0.4,11.7957146179498,17.8904851256245,4.95118556430872,-0.00424569141478504,1,14.3,29.9
0.433333333333333,11.7950152709137,18.0554523455931,4.94693613794427,-0.00424942636445014,1,14.2361111111111,29.9
0.466666666666667,11.7942916291877,18.2202777721312,4.94268453902081,-0.00425159892345839,1,14.1777777777778,29.9
0.5,11.7935464867032,18.3849613615873,4.93843189884111,-0.00425264017969962,1,14.125,29.9
0.533333333333333,11.7927810714604,18.5495030962995,4.93417903222528,-0.00425286661582724,1,14.0777777777778,29.9
0.566666666666667,11.7919951833337,18.7139029753138,4.92992652117429,-0.00425251105099811,1,14.0361111111111,29.9
0.6,11.791187450353,18.8781610082183,4.92567477602476,-0.00425174514952253,1,14,29.9
0.633333333333333,11.7903559596548,19.042190377901,4.9162141591077,-0.00946061691706035,1,13.9694444444444,29.9
0.666666666666667,11.7895002796338,19.2053564019042,4.87388294431293,-0.0423312147947712,3,13.9444444444444,29.9
0.7,11.7886200904098,19.367082650338,4.82983720413181,-0.0440457401811241,3,13.925,29.9
0.733333333333333,11.7877136553463,19.5273981079851,4.78924583750323,-0.0405913666285782,3,13.9111111111111,29.9
0.766666666666667,11.786780115941,19.6863031202538,4.7452216267208,-0.04402421078243,3,13.9027777777778,29.9
0.8,11.7858205031862,19.8435386748007,4.68909018685108,-0.0561314398697235,3,13.9,29.9
0.833333333333333,11.7848367514398,19.9988458393814,4.62953024481382,-0.0595599420372528,3,13.9,29.9
0.866666666666667,11.7838313584769,20.1520235283073,4.56133376855682,-0.0681964762570066,3,13.9,29.9
0.9,11.7828078071694,20.3027839016287,4.4845032248345,-0.0768305437223207,3,13.9,29.9
0.933333333333333,11.781770420739,20.4507527381039,4.3938530978147,-0.0906501270197984,3,13.9,29.9
0.966666666666667,11.7807237915577,20.595555923323,4.29457500435712,-0.0992780934575785,3,13.9,29.9
1,11.779672521917,20.7368485181265,4.18322778693396,-0.111347217423154,3,13.9,29.9
1.03333333333333,11.7786211150016,20.8743143984443,4.064981277571,-0.118246509362962,3,13.9,29.9
1.06666666666667,11.7775731389565,21.00781048605,3.94504826316475,-0.11993301440625,3,13.9,29.9
1.1,11.7765319495882,21.1372228484035,3.81996457731809,-0.12508368584666,3,13.9,29.9
1.13333333333333,11.7755013543738,21.2623511513081,3.68800999789226,-0.131954579425832,3,13.9,29.9
1.16666666666667,11.7744848177204,21.3830525342955,3.55435287784241,-0.13365712004985,3,13.9,29.9
1.2,11.7734851056199,21.4992993655171,3.42073843426412,-0.133614443578295,3,13.9,29.9
1.23333333333333,11.7725051374821,21.611035348168,3.28370144129069,-0.137036992973425,3,13.9,29.9
1.26666666666667,11.7715483508204,21.7181177478468,3.14152080696632,-0.142180634324374,3,13.9,29.9
1.3,11.770617760183,21.8204616340812,2.99938597423218,-0.142134832734138,3,13.9,29.9
1.33333333333333,11.7697161111857,21.9180111690809,2.85385340893234,-0.145532565299842,3,13.9,29.9
1.36666666666667,11.7688460273529,22.0107105375113,2.70836828966068,-0.145485119271655,3,13.9,29.9
1.4,11.7680102077951,22.098474875235,2.55774292772457,-0.150625361936108,3,13.9,29.9
1.43333333333333,11.7672114297545,22.181190271869,2.40542249058411,-0.152320437140467,3,13.9,29.9
1.46666666666667,11.7664515116512,22.2588583715897,2.25489543527408,-0.150527055310031,3,13.9,29.9
1.5,11.7657318655657,22.3315120928959,2.10468931491303,-0.150206120361044,3,13.9,29.9
1.53333333333333,11.7650537320043,22.3991834749204,1.95619185880473,-0.148497456108302,3,13.9,29.9
1.56666666666667,11.7644176561724,22.4619759913695,1.81200863283692,-0.144183225967809,3,13.9,29.9
1.6,11.7638239134184,22.5200085496751,1.67059145912076,-0.141417173716159,3,13.9,29.9
1.63333333333333,11.7632723858309,22.5734312253676,1.53540413459653,-0.135187324524235,3,13.9,29.9
1.66666666666667,11.7627628104844,22.6223936144665,1.40295531853915,-0.132448816057383,3,13.9,29.9
1.7,11.7622950141699,22.6670148801479,1.27492039573485,-0.128034922804293,3,13.9,29.9
1.73333333333333,11.7618684721892,22.7074411577141,1.15123115978711,-0.123689235947744,3,13.9,29.9
1.76666666666667,11.7614827767162,22.7437874551879,1.03011299514329,-0.121118164643816,3,13.9,29.9
1.8,11.761137862044,22.7761118354401,0.909927676703482,-0.12018531843981,3,13.9,29.9
1.83333333333333,11.7608335391322,22.8044758106893,0.792475549594545,-0.117452127108937,3,13.8991319444444,29.9
1.86666666666667,11.760569546201,22.8289403379848,0.67592676614482,-0.116548783449725,3,13.8965277777778,29.9
1.9,11.7603453548579,22.8495910589761,0.563634556571739,-0.112292209573081,3,13.8921875,29.9
1.93333333333333,11.7601601549847,22.8665415334999,0.453910076329005,-0.109724480242733,3,13.8861111111111,29.9
1.96666666666667,11.7600130812391,22.8799064875576,0.348487340697859,-0.105422735631146,3,13.8782986111111,29.9
2,11.7599032435693,22.8897993496822,0.245559289944218,-0.102928050753641,3,13.86875,29.9
2.03333333333333,11.7598299888343,22.8963017114573,0.145056646401531,-0.100502643542687,3,13.8574652777778,29.9
2.06666666666667,11.759792399766,22.8995250940393,0.0488792341817567,-0.0961774122197747,3,13.8444444444444,29.9
2.1,11.7597868913436,22.8999016390875,0.00236004466323577,-0.0465191895185209,3,13.8296875,29.9
2.13333333333333,11.7597932764136,22.8998634684536,0.00212067102309272,-0.000239373640143042,5,13.8131944444444,29.9
2.16666666666667,11.7597932764136,22.8998634684536,0.00256518381231908,0.000444512789226359,5,13.7949652777778,29.9
2.2,11.7597932764136,22.8998634684536,0.00335577254291203,0.000790588730592946,5,13.775,29.9
2.23333333333333,11.7597932764136,22.8998634684536,0.00439989267332438,0.00104412013041235,5,13.7532986111111,29.9
2.26666666666667,11.7597932764136,22.8998634684536,0.00557167407175629,0.00117178139843192,5,13.7298611111111,29.9
2.3,11.7597932764136,22.8998634684536,0.0067311861579065,0.00115951208615021,5,13.7046875,29.9
2.33333333333333,11.7597932764136,22.8998634684536,0.00774190270428788,0.00101071654638138,5,13.6777777777778,29.9
2.36666666666667,11.7597932764136,22.8998634684536,0.00848516340960291,0.000743260705315025,5,13.6491319444444,29.9
2.4,11.7597932764136,22.8998634684536,0.00887087324871931,0.000385709839116403,5,13.61875,29.9
2.43333333333333,11.7597932764136,22.8998634684536,0.0088441081145037,-2.67651342156124e-05,5,13.5866319444444,29.9
2.46666666666667,11.7597932764136,22.8998634684536,0.00838767740381754,-0.00045643071068616,5,13.5527777777778,29.9
2.5,11.7597932764136,22.8998634684536,0.00752101013407536,-0.000866667269742175,5,13.5171875,29.9
2.53333333333333,11.7597932764136,22.8998634684536,0.0062959683446751,-0.00122504178940026,5,13.4798611111111,29.9
2.56666666666667,11.7597932764136,22.8998634684536,0.00479034515141223,-0.00150562319326287,5,13.4407986111111,29.9
2.6,11.7597932764136,22.8998634684536,0.00309987691821063,-0.0016904682332016,5,13.4,29.9
2.63333333333333,11.7597932764136,22.8998634684536,0.00132959718157456,-0.00177027973663607,5,13.3574652777778,29.9
2.66666666666667,11.7597932764136,22.8998634684536,0.000414704088591585,-0.000914893092982971,5,13.3131944444444,29.9
2.7,11.7597932764136,22.8998634684536,0.00203426426512712,0.00161956017653554,5,13.2671875,29.9
2.73333333333333,11.7597932764136,22.8998634684536,0.00344386761174777,0.00140960334662064,5,13.2194444444444,29.9
2.76666666666667,11.7597932764136,22.8998634684536,0.00457675470320043,0.00113288709145267,5,13.1699652777778,29.9
2.8,11.7597932764136,22.8998634684536,0.00538773995164817,0.000810985248447739,5,13.11875,29.9
2.83333333333333,11.7597932764136,22.8998634684536,0.00585451012575675,0.000466770174108577,5,13.0657986111111,29.9
2.86666666666667,11.7597932764136,22.8998634684536,0.00597721219971583,0.00012270207395908,5,13.0111111111111,29.9
2.9,11.7597932764136,22.8998634684536,0.00577654821711448,-0.000200663982601355,5,12.9546875,29.9
2.93333333333333,11.7597932764136,22.8998634684536,0.00529067406267521,-0.000485874154439262,5,12.8965277777778,29.9
2.96666666666667,11.7597932764136,22.8998634684536,0.00457124677433144,-0.000719427288343776,5,12.8366319444444,29.9
3,11.7597932764136,22.8998634684536,0.00367898235864157,-0.000892264415689871,5,12.775,29.9
3.03333333333333,11.7597932764136,22.8998634684536,0.00267907600921438,-0.000999906349427183,5,12.7116319444444,29.9
3.06666666666667,11.7597932764136,22.8998634684536,0.00163680364130265,-0.00104227236791174,5,12.6465277777778,29.9
3.1,11.7597932764136,22.8998634684536,0.000613573149494696,-0.00102323049180795,5,12.5796875,29.9
3.13333333333333,11.7597932764136,22.8998634684536,0.000336368400567921,-0.000277204748926775,5,12.5111111111111,29.9
3.16666666666667,11.7597932764136,22.8998634684536,0.00116843352349953,0.000832065122931605,5,12.4407986111111,29.9
3.2,11.7597932764136,22.8998634684536,0.00184932948718243,0.000680895963682902,5,12.36875,29.9
3.23333333333333,11.7597932764136,22.8998634684536,0.00235782484357578,0.000508495356393352,5,12.2949652777778,29.9
3.26666666666667,11.7597932764136,22.8998634684536,0.00268469883707415,0.000326873993498367,5,12.2194444444444,29.9
3.3,11.7597932764136,22.8998634684536,0.00283197123374969,0.000147272396675539,5,12.1421875,29.9
3.33333333333333,11.7597932764136,22.8998634684536,0.00281154396373676,-2.04272700129234e-05,5,12.0631944444444,29.9
3.36666666666667,11.7597932764136,22.8998634684536,0.00264340705371537,-0.000168136910021395,5,11.9824652777778,29.9
3.4,11.7597932764136,22.8998634684536,0.00235356997479502,-0.000289837078920354,5,11.9,29.9
3.43333333333333,11.7597932764136,22.8998634684536,0.00197187683625283,-0.000381693138542187,5,11.8157986111111,29.9
3.46666666666667,11.7597932764136,22.8998634684536,0.00152985149588531,-0.000442025340367519,5,11.7298611111111,29.9
3.5,11.7597932764136,22.8998634684536,0.00105869870465987,-0.000471152791225438,5,11.6421875,29.9
3.53333333333333,11.7597932764136,22.8998634684536,0.00058756213176345,-0.000471136572896422,5,11.5527777777778,29.9
3.56666666666667,11.7597932764136,22.8998634684536,0.000142111828916861,-0.000445450302846589,5,11.4616319444444,29.9
3.6,11.7597932764136,22.8998634684536,0.000256495430955484,0.000114383602038623,5,11.36875,29.9
3.63333333333333,11.7597932764136,22.8998634684536,0.000592267532524558,0.000335772101569075,5,11.2741319444444,29.9
3.66666666666667,11.7597932764136,22.8998634684536,0.000854650036992606,0.000262382504468047,5,11.1777777777778,29.9
3.7,11.7597932764136,22.8998634684536,0.00103845218803346,0.000183802151040857,5,11.0796875,29.9
3.73333333333333,11.7597932764136,22.8998634684536,0.00114347396904616,0.000105021781012695,5,10.9798611111111,29.9
3.76666666666667,11.7597932764136,22.8998634684536,0.00117389388970663,3.04199206604731e-05,5,10.8782986111111,29.9
3.8,11.7597932764136,22.8998634684536,0.00113748366402131,-3.64102256853189e-05,5,10.775,29.9
3.83333333333333,11.7597932764136,22.8998634684536,0.00104471759184557,-9.27660721757452e-05,5,10.6699652777778,29.9
3.86666666666667,11.7597932764136,22.8998634684536,0.000907841823318633,-0.000136875768526932,5,10.5631944444444,29.9
3.9,11.7597932764136,22.8998634684536,0.000739962509784146,-0.000167879313534488,5,10.4546875,29.9
3.93333333333333,11.7597932764136,22.8998634684536,0.000554202979111532,-0.000185759530672614,5,10.3444444444444,29.9
3.96666666666667,11.7597932764136,22.8998634684536,0.000362969417407809,-0.000191233561703723,5,10.2324652777778,29.9
4,11.7597932764136,22.8998634684536,0.000177352976549385,-0.000185616440858424,5,10.11875,29.9
4.03333333333333,11.7597932764136,22.8998634684536,6.6845736462662e-06,-0.000170668402903119,5,10.0032986111111,29.9
4.06666666666667,11.7597932764136,22.8998634684536,0.000141752387663668,0.000135067814017402,5,9.88611111111111,29.9
4.1,11.7597932764136,22.8998634684536,0.000262855991280798,0.00012110360361713,5,9.7671875,29.9
4.13333333333333,11.7597932764136,22.8998634684536,0.000353699332516546,9.08433412357487e-05,5,9.64652777777778,29.9
4.16666666666667,11.7597932764136,22.8998634684536,0.000413402808251632,5.97034757350861e-05,5,9.52413194444444,29.9
4.2,11.7597932764136,22.8998634684536,0.000442908760539855,2.9505952288223e-05,5,9.4,29.9
4.23333333333333,11.7597932764136,22.8998634684536,0.000444684459023534,1.77569848367875e-06,5,9.27413194444444,29.9
4.26666666666667,11.7597932764136,22.8998634684536,0.000422379966749876,-2.23044922736582e-05,5,9.14652777777778,29.9
4.3,11.7597932764136,22.8998634684536,0.000380466377951796,-4.19135887980803e-05,5,9.0171875,29.9
4.33333333333333,11.7597932764136,22.8998634684536,0.000323877532766819,-5.65888451849768e-05,5,8.88611111111111,29.9
4.36666666666667,11.7597932764136,22.8998634684536,0.000257674928020878,-6.62026047459404e-05,5,8.75329861111111,29.9
4.4,11.7597932764136,22.8998634684536,0.000186751493265211,-7.09234347556677e-05,5,8.61875,29.9
4.43333333333333,11.7597932764136,22.8998634684536,0.000115585516314365,-7.11659769508456e-05,5,8.48246527777778,29.9
4.46666666666667,11.7597932764136,22.8998634684536,4.80515844116979e-05,-6.75339319026672e-05,5,8.34444444444444,29.9
4.5,11.7597932764136,22.8998634684536,1.270878351728e-05,-3.53428008944179e-05,5,8.2046875,29.9
4.53333333333333,11.7597932764136,22.8998634684536,6.43578912469032e-05,5.16491077296232e-05,5,8.06319444444444,29.9
4.56666666666667,11.7597932764136,22.8998634684536,0.000105378245315999,4.10203540690957e-05,5,7.91996527777778,29.9
4.6,11.7597932764136,22.8998634684536,0.000135041271559388,2.96630262433886e-05,5,7.775,29.9
4.63333333333333,11.7597932764136,22.8998634684536,0.000153336817460487,1.82955459010991e-05,5,7.62829861111111,29.9
4.66666666666667,11.7597932764136,22.8998634684536,0.000160872900317331,7.53608285684431e-06,5,7.47986111111111,29.9
4.7,11.7597932764136,22.8998634684536,0.000158755490542185,-2.11740977514634e-06,5,7.3296875,29.9
4.73333333333333,11.7597932764136,22.8998634684536,0.000148457846672129,-1.02976438700551e-05,5,7.17777777777778,29.9
4.76666666666667,11.7597932764136,22.8998634684536,0.000131688146320774,-1.67697003513552e-05,5,7.02413194444444,29.9
4.8,11.7597932764136,22.8998634684536,0.00011026300167778,-2.14251446429947e-05,5,6.86875,29.9
4.83333333333333,11.7597932764136,22.8998634684536,8.5993030664366e-05,-2.42699710134136e-05,5,6.71163194444444,29.9
4.86666666666667,11.7597932764136,22.8998634684536,6.05850941718036e-05,-2.54079364925624e-05,5,6.55277777777778,29.9
4.9,11.7597932764136,22.8998634684536,3.55642154628029e-05,-2.50208787090007e-05,5,6.3921875,29.9
4.93333333333333,11.7597932764136,22.8998634684536,1.22166651739732e-05,-2.33475502888298e-05,5,6.22986111111111,29.9
4.96666666666667,11.7597932764136,22.8998634684536,8.44569775911508e-06,-3.77096741485808e-06,5,6.06579861111111,29.9
5,11.7597932764136,22.8998634684536,2.57009341339187e-05,1.72552363748036e-05,5,5.9,29.9
5.03333333333333,11.7597932764136,22.8998634684536,3.9114445145082e-05,1.34135110111633e-05,5,5.9,29.9
5.06666666666667,11.7597932764136,22.8998634684536,4.85210724033395e-05,9.40662725825751e-06,5,5.9,29.9
5.1,11.7597932764136,22.8998634684536,5.39950893909591e-05,5.47401698761953e-06,5,5.9,29.9
5.13333333333333,11.7597932764136,22.8998634684536,0.00015442392647864,0.000100428837087681,5,5.9,29.9
5.16666666666667,11.7597878404414,22.9005187663564,0.0375738590257823,0.0374194350993037,4,5.9,29.9
5.2,11.7597703764536,22.9026239396995,0.0886588583179669,0.0510849992921845,4,5.9,29.9
5.23333333333333,11.7597388650884,22.9064210795961,0.139049341720047,0.0503904834020798,4,5.9,29.9
5.26666666666667,11.7596935068326,22.91188239658,0.188485710652307,0.0494363689322601,4,5.9,29.9
5.3,11.7596345349598,22.9189729027083,0.236790126883673,0.0483044162313667,4,5.9,29.9
5.33333333333333,11.7595621850919,22.9276532400097,0.28389354981691,0.0471034229332361,4,5.9,29.9
5.36666666666667,11.7594766521431,22.9378842390299,0.329851734264509,0.0459581844475995,4,5.9,29.9
5.4,11.7593780722057,22.9496287120202,0.374718202694308,0.0448664684297985,4,5.9,29.9
5.43333333333333,11.7592665245531,22.9628510889154,0.418536057967665,0.0438178552733574,4,5.9,29.9
5.46666666666667,11.7591420356265,22.9775171062184,0.461341016805156,0.0428049588374915,4,5.9,29.9
5.5,11.7590045858035,22.9935934659325,0.503151615227486,0.04181059842233,4,5.9,29.9
5.53333333333333,11.7588541229133,23.0110469872824,0.543963273529689,0.040811658302203,4,5.9,29.9
5.56666666666667,11.7586905729927,23.0298443825122,0.58377770252228,0.0398144289925906,4,5.9,29.9
5.6,11.7585138492388,23.0499525061883,0.622603128710745,0.0388254261884649,4,5.9,29.9
5.63333333333333,11.7583238836178,23.071338544089,0.66045220348102,0.037849074770275,4,5.9,29.9
5.66666666666667,11.7581207278281,23.0939701547631,0.697342359019485,0.0368901555384648,4,5.9,29.9
5.7,11.7579046048628,23.1178160036133,0.733321645070611,0.0359792860511268,4,5.9,29.9
5.73333333333333,11.7576759277336,23.142846778588,0.76845397372268,0.0351323286520684,4,5.9,29.9
5.76666666666667,11.7574353582937,23.1690351277579,0.802791458648989,0.0343374849263093,4,5.9,29.9
5.8,11.7571839524788,23.1963557027065,0.836432747622735,0.0336412889737456,4,5.9,29.9
5.83333333333333,11.7569231395769,23.2247925359415,0.869916605192619,0.0334838575698844,4,5.9,29.9
5.86666666666667,11.7566545646964,23.2543576702478,0.904356248449736,0.0344396432571165,4,5.9,29.9
5.9,11.7563798981674,23.2851069490336,0.941232075153584,0.0368758267038488,4,5.9,29.9
5.93333333333333,11.7561005017955,23.317148104691,0.982112630436442,0.0408805552828573,4,5.9,29.9
5.96666666666667,11.7558171712133,23.3506371177918,1.0282783109581,0.0461656805216573,4,5.9,29.9
6,11.7555301188235,23.3857662499388,1.0806444423821,0.052366131424004,4,5.9,29.9
6.03333333333333,11.7552389950324,23.4227539387675,1.13987935629883,0.0592349139167276,4,5.9,29.9
6.06666666666667,11.7549429031681,23.461837115159,1.20641840352928,0.066539047230449,4,5.9,29.9
6.1,11.7546404404104,23.503262409372,1.28040849591915,0.0739900923898698,4,5.9,29.9
6.13333333333333,11.7543297535948,23.5472779658513,1.36181927570233,0.081410779783184,4,5.9,29.9
6.16666666666667,11.7540085892232,23.5941288094137,1.45048583416111,0.0886665584587749,4,5.9,29.9
6.2,11.7536743783962,23.6440513746094,1.54604763971188,0.0955618055507705,4,5.9,29.9
6.23333333333333,11.7533243679151,23.6972661103931,1.64790858876032,0.101860949048437,4,5.9,29.9
6.26666666666667,11.7529557723845,23.7539711564554,1.75534966474188,0.107441075981568,4,5.9,29.9
6.3,11.7525659215872,23.814339822641,1.86760490635898,0.112255241617092,4,5.9,29.9
6.33333333333333,11.752152421813,23.8785187357641,1.98380818259255,0.116203276233573,4,5.9,29.9
6.36666666666667,11.7517133494968,23.9466228996755,2.10297042881809,0.119162246225537,4,5.9,29.9
6.4,11.7512473934633,24.0187360980891,2.22422390866206,0.121253479843979,4,5.9,29.9
6.43333333333333,11.7507539371902,24.0949156660397,2.34684824996472,0.122624341302653,4,5.9,29.9
