Time,x_ego,y_ego,velocity,acceleration,action,x_ped,y_ped
0,11.8,8.9,7,0,1,15.5,29.9
0.0333333333333333,11.8000149450196,9.13327037931169,6.99615588989206,-0.00384411010794494,1,15.4502170138889,29.9
0.0666666666666667,11.8001068106681,9.36640659567531,6.99197061036023,-0.00418527953182224,1,15.4008680555556,29.9
0.1,11.8003175162268,9.59940072853469,6.98769852528765,-0.00427208507258037,1,15.351953125,29.9
0.133333333333333,11.8006572636372,9.83225367448774,6.98350405932008,-0.00419446596757744,1,15.3034722222222,29.9
0.166666666666667,11.80111011591,10.0649675764537,6.97936416626569,-0.00413989305438456,1,15.2554253472222,29.9
0.2,11.8016481531314,10.2975439793955,6.97526281504519,-0.00410135122050104,1,15.2078125,29.9
0.233333333333333,11.802245881957,10.5299840134167,6.97118933688034,-0.00407347816484549,1,15.1606336805556,29.9
0.266666666666667,11.8028858527742,10.7622885116082,6.96713641257085,-0.00405292430949178,1,15.1138888888889,29.9
0.3,11.8035575560362,10.9944580892801,6.96309876321102,-0.00403764935983641,1,15.067578125,29.9
0.333333333333333,11.8042551103435,11.226493200697,6.95907249077144,-0.00402627243957721,1,15.0217013888889,29.9
0.366666666666667,11.8049753258014,11.4583941814327,6.95505470192324,-0.00401778884820025,1,14.9762586805556,29.9
0.4,11.8057164225728,11.6901612803117,6.95104326304357,-0.00401143887966793,1,14.93125,29.9
0.433333333333333,11.8064774041932,11.9217946830219,6.94703661799151,-0.00400664505206016,1,14.8866753472222,29.9
0.466666666666667,11.8072587062757,12.1532945271154,6.94303370851752,-0.00400290947399107,1,14.8425347222222,29.9
0.5,11.8080657206293,12.3846609046151,6.93903388103779,-0.00399982747972949,1,14.798828125,29.9
0.533333333333333,11.8089101483955,12.6158938644921,6.93503664164617,-0.00399723939161944,1,14.7555555555556,29.9
0.566666666666667,11.8098053598729,12.8469934281518,6.93104158646619,-0.00399505517998389,1,14.7127170138889,29.9
0.6,11.8107645626042,13.0779595974993,6.9270484334722,-0.00399315299398939,1,14.6703125,29.9
0.633333333333333,11.8117992975589,13.3087923618612,6.92305688735965,-0.00399154611254637,1,14.6283420138889,29.9
0.666666666666667,11.8129157027324,13.53949171364,6.9190665321108,-0.00399035524885516,1,14.5868055555556,29.9
0.7,11.8141123951268,13.7700576633433,6.91507695788454,-0.00398957422625923,1,14.545703125,29.9
0.733333333333333,11.8153830936581,14.0004902399229,6.91108802344021,-0.00398893444432158,1,14.5050347222222,29.9
0.766666666666667,11.8167216449879,14.2307894771968,6.90709978952925,-0.00398823391096581,1,14.4648003472222,29.9
0.8,11.8181230178898,14.4609554099381,6.90311232655517,-0.00398746297407548,1,14.425,29.9
0.833333333333333,11.8195831122159,14.6909880732426,6.89912568651908,-0.00398664003609106,1,14.3856336805556,29.9
0.866666666666667,11.8210981335582,14.9208006694572,6.88993000075473,-0.00919568576435204,1,14.3467013888889,29.9
0.9,11.8226639697185,15.1501334766071,6.87035967256152,-0.0195703281932129,3,14.308203125,29.9
0.933333333333333,11.824276635365,15.3786694073256,6.8421383004373,-0.0282213721242126,3,14.2701388888889,29.9
0.966666666666667,11.8259333532331,15.6062356567191,6.81219935414718,-0.0299389462901285,3,14.2325086805556,29.9
1,11.8276321591477,15.8327172153636,6.7770774942757,-0.0351218598714782,3,14.1953125,29.9
1.03333333333333,11.829371605886,16.0579987369325,6.74021795927902,-0.0368595349966814,3,14.1585503472222,29.9
1.06666666666667,11.8311504906985,16.281936195024,6.69645504051898,-0.0437629187600361,3,14.1222222222222,29.9
1.1,11.8329669035078,16.5043568969689,6.64923403220443,-0.047221008314553,3,14.086328125,29.9
1.13333333333333,11.8348167421449,16.7251456026428,6.5985556954219,-0.0506783367825294,3,14.0508680555556,29.9
1.16666666666667,11.8366961502854,16.9442448681396,6.54788676912695,-0.0506689262949438,3,14.0158420138889,29.9
1.2,11.838600097767,17.1616263428699,6.4955054329452,-0.0523813361817549,3,13.98125,29.9
1.23333333333333,11.8405239882327,17.3771465131858,6.43622405718374,-0.0592813757614632,3,13.9470920138889,29.9
1.26666666666667,11.842463369768,17.5904885841445,6.3648337940363,-0.0713902631474328,3,13.9133680555556,29.9
1.3,11.844414805849,17.8013645060989,6.28826844102823,-0.0765653530080765,3,13.9133680555556,29.9
1.33333333333333,11.8463754192868,18.0095153346709,6.20134093121335,-0.0869275098148758,3,13.9133680555556,29.9
1.36666666666667,11.8483417050425,18.2145957047307,6.10405291327658,-0.0972880179367674,3,13.9133680555556,29.9
1.4,11.8503110140999,18.4163754764181,6.00331633347894,-0.100736579797648,3,13.9133680555556,29.9
1.43333333333333,11.8522820436801,18.6147974856305,5.90259811876986,-0.100718214709072,3,13.9133680555556,29.9
1.46666666666667,11.8542539334906,18.8098623546722,5.80189864181794,-0.100699476951922,3,13.9133680555556,29.9
1.5,11.8562260554428,19.0015994178375,5.70294023391838,-0.0989584078995582,3,13.9133680555556,29.9
1.53333333333333,11.8581982827944,19.1900957775345,5.60746672140051,-0.0954735125178736,3,13.9133680555556,29.9
1.56666666666667,11.8601696651464,19.3753520613036,5.50854565992855,-0.098921061471958,3,13.9133680555556,29.9
1.6,11.862138082252,19.5572537314133,5.40619915109432,-0.102346508834231,3,13.9133680555556,29.9
1.63333333333333,11.8641012116593,19.7356862627207,5.3004057604971,-0.105793390597225,3,13.9133680555556,29.9
1.66666666666667,11.8660562024795,19.9105060802224,5.18944376963779,-0.110961990859309,3,13.9133680555556,29.9
1.7,11.8679999684799,20.0815118570205,5.07156993028637,-0.11787383935142,3,13.9133680555556,29.9
1.73333333333333,11.8699315138807,20.2484735648112,4.94680696436423,-0.124762965922137,3,13.9133680555556,29.9
1.76666666666667,11.8718515572256,20.4111902509756,4.81687782649009,-0.129929137874141,3,13.9133680555556,29.9
1.8,11.8737603713937,20.5695761698842,4.68697127428951,-0.129906552200576,3,13.9133680555556,29.9
1.83333333333333,11.875656877861,20.7236033724851,4.555365232577,-0.131606041712516,3,13.9133680555556,29.9
1.86666666666667,11.8775388310935,20.8732716359028,4.42541702895628,-0.129948203620719,3,13.9133680555556,29.9
1.9,11.8794035713786,21.0186348354468,4.29707792717187,-0.128339101784406,3,13.9133680555556,29.9
1.93333333333333,11.881249465348,21.1598916666081,4.17904705785634,-0.118030869315533,3,13.9133680555556,29.9
1.96666666666667,11.8830776100043,21.2975018356542,4.07828724635559,-0.100759811500748,3,13.9133680555556,29.9
2,11.8848891378792,21.4319545894141,3.98960845731659,-0.0886787890390037,3,13.9133680555556,29.9
2.03333333333333,11.8866811080125,21.5635381169002,3.90613544648743,-0.0834730108291573,3,13.9133680555556,29.9
2.06666666666667,11.8884484055724,21.6924258293005,3.82785580661255,-0.0782796398748751,3,13.9133680555556,29.9
2.1,11.8901875370571,21.8187910122787,3.75477587892862,-0.0730799276839362,3,13.9133680555556,29.9
2.13333333333333,11.8918950341241,21.9426341624483,3.67652335595,-0.0782525229786164,3,13.9133680555556,29.9
2.16666666666667,11.8935661118004,22.063696124175,3.58789197071622,-0.0886313852337857,3,13.9133680555556,29.9
2.2,11.8951956185796,22.1815739836983,3.48546296999495,-0.102429000721266,3,13.9133680555556,29.9
2.23333333333333,11.8967789922889,22.2958362471215,3.37094060049495,-0.114522369499996,3,13.9133680555556,29.9
2.26666666666667,11.898313981802,22.4061954133091,3.25126074519919,-0.119679855295759,3,13.9133680555556,29.9
2.3,11.8998007008857,22.5125373852405,3.12989239214868,-0.121368353050511,3,13.9133680555556,29.9
2.33333333333333,11.9012395750493,22.6147768516911,3.00509381328532,-0.124798578863361,3,13.9133680555556,29.9
2.36666666666667,11.9026314792769,22.7128859725148,2.88205527043358,-0.123038542851744,3,13.9133680555556,29.9
2.4,11.9039775664123,22.8068947221515,2.75905587912991,-0.122999391303664,3,13.9133680555556,29.9
2.43333333333333,11.9052780539556,22.8968044087114,2.63609659171318,-0.122959287416734,3,13.9133680555556,29.9
2.46666666666667,11.9065321454741,22.9825876658861,2.51145586114295,-0.124640730570231,3,13.9133680555556,29.9
2.5,11.907738764595,23.0642458506259,2.38857841090331,-0.12287745023964,3,13.9133680555556,29.9
2.53333333333333,11.9088970217947,23.1418380976978,2.26748585534719,-0.121092555556124,3,13.9133680555556,29.9
2.56666666666667,11.9100052913581,23.215395964795,2.14658103453069,-0.120904820816501,3,13.9133680555556,29.9
2.6,11.9110616457145,23.2849409047648,2.02692626482326,-0.119654769707429,3,13.9133680555556,29.9
2.63333333333333,11.912064691983,23.3505330141938,1.90947324262366,-0.117453022199594,3,13.9133680555556,29.9
2.66666666666667,11.9130134702913,23.4122509246793,1.79446776417136,-0.115005478452302,3,13.9133680555556,29.9
2.7,11.9139073668088,23.4701768065208,1.68191205428825,-0.112555709883111,3,13.9133680555556,29.9
2.73333333333333,11.9147460976172,23.5243908072309,1.57171881314145,-0.110193241146799,3,13.9133680555556,29.9
2.76666666666667,11.9155293234167,23.5749418843146,1.46209873037564,-0.109620082765808,3,13.9133680555556,29.9
2.8,11.9162570182069,23.621877195747,1.35473589446252,-0.10736283591312,3,13.9133680555556,29.9
2.83333333333333,11.9169298159099,23.6652713308965,1.24959086521978,-0.105145029242744,3,13.9133680555556,29.9
2.86666666666667,11.917548554825,23.7051970992359,1.14659673239108,-0.102994132828694,3,13.9133680555556,29.9
2.9,11.9181150089385,23.7417831421227,1.04918440585941,-0.0974123265316709,3,13.9133680555556,29.9
2.93333333333333,11.9186314702596,23.7751870546922,0.955661486203301,-0.0935229196561114,3,13.9133680555556,29.9
2.96666666666667,11.9190995429076,23.8055108126826,0.864363462375431,-0.09129802382787,3,13.9133680555556,29.9
3,11.9195204806796,23.8328281494559,0.775240093614857,-0.0891233687605744,3,13.9133680555556,29.9
3.03333333333333,11.9198962986213,23.8572669286079,0.691615446175938,-0.0836246474389192,3,13.9133680555556,29.9
3.06666666666667,11.9202297480102,23.8790083036031,0.613372457960274,-0.0782429882156631,3,13.9133680555556,29.9
3.1,11.9205219311749,23.8981154272348,0.533552746545055,-0.0798197114152194,3,13.9133680555556,29.9
3.13333333333333,11.9207739312182,23.9146514656599,0.459096278192401,-0.0744564683526545,3,13.9133680555556,29.9
3.16666666666667,11.9209872119481,23.9287080543581,0.384766085207391,-0.0743301929850098,3,13.9133680555556,29.9
3.2,11.9211632301078,23.9403750838856,0.315694382450816,-0.0690717027565745,3,13.9133680555556,29.9
3.23333333333333,11.9213037990546,23.9497684700891,0.248318609803116,-0.0673757726476998,3,13.9133680555556,29.9
3.26666666666667,11.9214102475967,23.9569723609333,0.184303814435126,-0.06401479536799,3,13.9133680555556,29.9
3.3,11.9214842501586,23.9620987551387,0.123674455029619,-0.0606293594055074,3,13.9133680555556,29.9
3.33333333333333,11.9215270780975,23.965233195841,0.0647945521057064,-0.0588799029239127,3,13.9133680555556,29.9
3.36666666666667,11.9215404065052,23.9664921873267,0.01127468917464,-0.0535198629310664,3,13.9133680555556,29.9
3.4,11.9215333592,23.9665281958325,0.0184713191724019,0.0071966299977619,5,13.9133680555556,29.9
3.43333333333333,11.9215138748473,23.9659149263804,0.00128851472365683,-0.0171828044487451,5,13.9133680555556,29.9
3.46666666666667,11.9215138748473,23.9659149263804,0.0013006032425299,1.2088518873069e-05,5,13.9133680555556,29.9
3.5,11.9215138748473,23.9659149263804,0.00156170031548648,0.000261097072956584,5,13.9133680555556,29.9
3.53333333333333,11.9215138748473,23.9659149263804,0.002018306187016,0.000456605871529524,5,13.9133680555556,29.9
3.56666666666667,11.9215138748473,23.9659149263804,0.00259556661333118,0.000577260426315174,5,13.9133680555556,29.9
3.6,11.9215138748473,23.9659149263804,0.00320890838918037,0.000613341775849191,5,13.9133680555556,29.9
3.63333333333333,11.9215138748473,23.9659149263804,0.00377459663149682,0.000565688242316446,5,13.9133680555556,29.9
3.66666666666667,11.9215138748473,23.9659149263804,0.00421850546427188,0.000443908832775069,5,13.9133680555556,29.9
3.7,11.9215138748473,23.9659149263804,0.00448265656554615,0.000264151101274263,5,13.9133680555556,29.9
3.73333333333333,11.9215138748473,23.9659149263804,0.00452933209927761,4.66755337314613e-05,5,13.9133680555556,29.9
3.76666666666667,11.9215138748473,23.9659149263804,0.0043427930957345,-0.000186539003543111,5,13.9133680555556,29.9
3.8,11.9215138748473,23.9659149263804,0.00392881941606533,-0.000413973679669171,5,13.9133680555556,29.9
3.83333333333333,11.9215138748473,23.9659149263804,0.00331242593936399,-0.000616393476701337,5,13.9133680555556,29.9
3.86666666666667,11.9215138748473,23.9659149263804,0.00253419897813134,-0.000778226961232652,5,13.9133680555556,29.9
3.9,11.9215138748473,23.9659149263804,0.00164573855411247,-0.000888460424018865,5,13.9133680555556,29.9
3.93333333333333,11.9215138748473,23.9659149263804,0.000704690649479987,-0.000941047904632485,5,13.9133680555556,29.9
3.96666666666667,11.9215138748473,23.9659149263804,0.000230184160333863,-0.000474506489146125,5,13.9133680555556,29.9
4,11.9215138748473,23.9659149263804,0.00110352475627952,0.000873340595945657,5,13.9133680555556,29.9
4.03333333333333,11.9215138748473,23.9659149263804,0.00186716942924419,0.000763644672964668,5,13.9133680555556,29.9
4.06666666666667,11.9215138748473,23.9659149263804,0.00248303882539154,0.00061586939614735,5,13.9133680555556,29.9
4.1,11.9215138748473,23.9659149263804,0.00292499428089219,0.000441955455500648,5,13.9133680555556,29.9
4.13333333333333,11.9215138748473,23.9659149263804,0.00317965360905977,0.00025465932816758,5,13.9133680555556,29.9
4.16666666666667,11.9215138748473,23.9659149263804,0.00324622482458318,6.6571215523413e-05,5,13.9133680555556,29.9
4.2,11.9215138748473,23.9659149263804,0.00313548151409983,-0.000110743310483352,5,13.9133680555556,29.9
4.23333333333333,11.9215138748473,23.9659149263804,0.00286804930181654,-0.000267432212283289,5,13.9133680555556,29.9
4.26666666666667,11.9215138748473,23.9659149263804,0.00247220039253251,-0.000395848909284028,5,13.9133680555556,29.9
4.3,11.9215138748473,23.9659149263804,0.00198136315848548,-0.000490837234047031,5,13.9133680555556,29.9
4.33333333333333,11.9215138748473,23.9659149263804,0.00143154794925152,-0.00054981520923396,5,13.9133680555556,29.9
4.36666666666667,11.9215138748473,23.9659149263804,0.000858871353939088,-0.00057267659531243,5,13.9133680555556,29.9
4.4,11.9215138748473,23.9659149263804,0.000297332167271583,-0.000561539186667505,5,13.9133680555556,29.9
4.43333333333333,11.9215138748473,23.9659149263804,0.000223043324983187,-7.4288842288396e-05,5,13.9133680555556,29.9
4.46666666666667,11.9215138748473,23.9659149263804,0.000677608081041553,0.000454564756058367,5,13.9133680555556,29.9
4.5,11.9215138748473,23.9659149263804,0.00104801358497075,0.000370405503929196,5,13.9133680555556,29.9
4.53333333333333,11.9215138748473,23.9659149263804,0.00132263895467891,0.000274625369708164,5,13.9133680555556,29.9
4.56666666666667,11.9215138748473,23.9659149263804,0.00149655934954318,0.000173920394864268,5,13.9133680555556,29.9
4.6,11.9215138748473,23.9659149263804,0.00157110926520301,7.45499156598285e-05,5,13.9133680555556,29.9
4.63333333333333,11.9215138748473,23.9659149263804,0.00155311543256012,-1.79938326428871e-05,5,13.9133680555556,29.9
4.66666666666667,11.9215138748473,23.9659149263804,0.00145388586678197,-9.92295657781521e-05,5,13.9133680555556,29.9
4.7,11.9215138748473,23.9659149263804,0.00128804634804162,-0.000165839518740353,5,13.9133680555556,29.9
4.73333333333333,11.9215138748473,23.9659149263804,0.00107231390202024,-0.000215732446021373,5,13.9133680555556,29.9
4.76666666666667,11.9215138748473,23.9659149263804,0.000824289658799442,-0.000248024243220802,5,13.9133680555556,29.9
4.8,11.9215138748473,23.9659149263804,0.000561341997616984,-0.000262947661182458,5,13.9133680555556,29.9
4.83333333333333,11.9215138748473,23.9659149263804,0.000299636437059407,-0.000261705560557577,5,13.9133680555556,29.9
4.86666666666667,11.9215138748473,23.9659149263804,5.33526214657412e-05,-0.000246283815593666,5,13.9133680555556,29.9
4.9,11.9215138748473,23.9659149263804,0.00016588777501396,0.000112535153548219,5,13.9133680555556,29.9
4.93333333333333,11.9215138748473,23.9659149263804,0.000349374259131029,0.000183486484117069,5,13.9133680555556,29.9
4.96666666666667,11.9215138748473,23.9659149263804,0.000491448152836444,0.000142073893705415,5,13.9133680555556,29.9
5,11.9215138748473,23.9659149263804,0.000589448980818371,9.80008279819261e-05,5,13.9133680555556,29.9
5.03333333333333,11.9215138748473,23.9659149263804,0.00064349426342622,5.40452826078498e-05,5,13.9133680555556,29.9
5.06666666666667,11.9215138748473,23.9659149263804,0.000656126778471076,1.26325150448558e-05,5,13.9133680555556,29.9
5.1,11.9215138748473,23.9659149263804,0.000631866853649319,-2.42599248217569e-05,5,13.9133680555556,29.9
5.13333333333333,11.9215138748473,23.9659149263804,0.000576708015756462,-5.51588378928571e-05,5,13.9133680555556,29.9
5.16666666666667,11.9215138748473,23.9659149263804,0.000497592677051224,-7.91153387052385e-05,5,13.9133680555556,29.9
5.2,11.9215138748473,23.9659149263804,0.000401900910489264,-9.56917665619595e-05,5,13.9133680555556,29.9
5.23333333333333,11.9215138748473,23.9659149263804,0.000296980244026785,-0.000104920666462479,5,13.9133680555556,29.9
5.26666666666667,11.9215138748473,23.9659149263804,0.000189738303133044,-0.000107241940893741,5,13.9133680555556,29.9
5.3,11.9215138748473,23.9659149263804,8.63135517840735e-05,-0.000103424751348971,5,13.9133680555556,29.9
5.33333333333333,11.9215138748473,23.9659149263804,8.16721353945273e-06,-7.81463382446208e-05,5,13.9133680555556,29.9
5.36666666666667,11.9215138748473,23.9659149263804,8.97421773195925e-05,8.15749637801398e-05,5,13.9133680555556,29.9
5.4,11.9215138748473,23.9659149263804,0.000155681701602079,6.59395242824867e-05,5,13.9133680555556,29.9
5.43333333333333,11.9215138748473,23.9659149263804,0.000303089494024402,0.000147407792422323,5,13.9133680555556,29.9
5.46666666666667,11.9215164376087,23.9660989807938,0.00619665935639865,0.00589356986237425,5,13.9133680555556,29.9
5.5,11.9215199917071,23.9663542424883,0.00917491947992121,0.00297826012352256,5,13.9133680555556,29.9
5.53333333333333,11.9215249097718,23.9667074056521,0.0120879423943299,0.00291302291440871,5,13.9133680555556,29.9
5.56666666666667,11.9215311623387,23.9671562607092,0.0149250564330858,0.00283711403875587,5,13.9133680555556,29.9
5.6,11.9215387170722,23.9676983575516,0.0176803547672233,0.00275529833413752,5,13.9133680555556,29.9
5.63333333333333,11.9215471407843,23.9683024192676,0.0186353027108078,0.000954947943584528,5,13.9133680555556,29.9
5.66666666666667,11.921556402414,23.9689660246184,0.0212367743807947,0.00260147166998682,5,13.9133680555556,29.9
5.7,11.9215668725103,23.9697155702577,0.0237682560440398,0.00253148166324517,5,13.9133680555556,29.9
5.73333333333333,11.9215785210997,23.9705486463446,0.0262288089455554,0.0024605529015156,5,13.9133680555556,29.9
5.76666666666667,11.9215913177608,23.9714627694294,0.0286180587720144,0.00238924982645897,5,13.9133680555556,29.9
5.8,11.9216052322351,23.9724554258127,0.0309356950568563,0.00231763628484189,5,13.9133680555556,29.9
5.83333333333333,11.9216202348651,23.9735241028887,0.0331813365351089,0.00224564147825267,5,13.9133680555556,29.9
5.86666666666667,11.921636296901,23.9746663115931,0.035354642035773,0.002173305500664,5,13.9133680555556,29.9
5.9,11.9216537900053,23.9759082789183,0.0391743594665258,0.00381971743075282,5,13.9133680555556,29.9
5.93333333333333,11.9216730837214,23.9772760192066,0.04290647910417,0.0037321196376442,5,13.9133680555556,29.9
5.96666666666667,11.9216941441072,23.9787664877952,0.0465411536916812,0.00363467458751119,5,13.9133680555556,29.9
6,11.9217169348999,23.9803763912289,0.0500726062165588,0.00353145252487765,5,13.9133680555556,29.9
6.03333333333333,11.9217410195911,23.9820736109722,0.0517790796645672,0.00170647344800839,5,13.9133680555556,29.9
6.06666666666667,11.9217663643703,23.9838548930308,0.0551129483587262,0.00333386869415905,5,13.9133680555556,29.9
