Time,x_ego,y_ego,velocity,acceleration,action,x_ped,y_ped
0,11.8,8.9,7,0,1,15.5,29.9
0.0333333333333333,11.7999958626057,9.13327037938798,6.99615578798827,-0.00384421201173346,1,15.5,29.9
0.0666666666666667,11.7999699749077,9.36640659856316,6.99196956449683,-0.00418622349144027,1,15.5,29.9
0.1,11.7999083255866,9.59940075304593,6.98769530617199,-0.0042742583248323,1,15.5,29.9
0.133333333333333,11.7998036489783,9.83225377535855,6.98349832302705,-0.00419698314494887,1,15.5,29.9
0.166666666666667,11.7996534112375,10.0649678503829,6.97935692507436,-0.0041413979526812,1,15.5,29.9
0.2,11.7994580058159,10.2975445485289,6.97525554494511,-0.0041013801292582,1,15.5,29.9
0.233333333333333,11.7992193711075,10.5299850007169,6.97118303264894,-0.0040725122961689,1,15.5,29.9
0.266666666666667,11.7989400759027,10.762290023919,6.96713141630288,-0.00405161634605378,1,15.5,29.9
0.3,11.7986228065786,10.9944602109532,6.96309500067788,-0.00403641562500034,1,15.5,29.9
0.333333333333333,11.7982701359474,11.2264959945618,6.95906971568206,-0.00402528499581845,1,15.5,29.9
0.366666666666667,11.797884447817,11.4583976930829,6.95505264962064,-0.00401706606142405,1,15.5,29.9
0.4,11.7974679173539,11.6901655429882,6.95104171716411,-0.0040109324565254,1,15.5,29.9
0.433333333333333,11.7970224876201,11.9217997220498,6.94703542386621,-0.00400629329790192,1,15.5,29.9
0.466666666666667,11.7965498222013,12.1533003658191,6.94303269894893,-0.00400272491728693,1,15.5,29.9
0.5,11.7960512427742,12.3846675793402,6.93903277599446,-0.00399992295446605,1,15.5,29.9
0.533333333333333,11.7955276746747,12.615901445485,6.93503510724087,-0.0039976687535912,1,15.5,29.9
0.566666666666667,11.7949796239115,12.8470020309164,6.93103930162673,-0.00399580561414048,1,15.5,29.9
0.6,11.7944071997981,13.0779693904004,6.92704507987045,-0.00399422175628139,1,15.5,29.9
0.633333333333333,11.7938101839762,13.3088035699768,6.92305224198062,-0.00399283788982974,1,15.5,29.9
0.666666666666667,11.793188134166,13.5395046093353,6.91906064394639,-0.00399159803422755,1,15.5,29.9
0.7,11.7925405030443,13.7700725436276,6.91507018121461,-0.00399046273178261,1,15.5,29.9
0.733333333333333,11.7918667506691,14.0005074048567,6.91108077713869,-0.00398940407591653,1,15.5,29.9
0.766666666666667,11.7911664323971,14.23080922293,6.90709237501449,-0.00398840212420204,1,15.5,29.9
0.8,11.7904392514763,14.4609780264316,6.90310493265432,-0.00398744236016402,1,15.5,29.9
0.833333333333333,11.7896850740523,14.6910138431525,6.89911841870763,-0.00398651394669702,1,15.5,29.9
0.866666666666667,11.7889039119842,14.9209167004219,6.89513281013003,-0.00398560857760177,1,15.5,29.9
0.9,11.788095884013,15.1506866252816,6.89114809035697,-0.00398471977305093,1,15.5,29.9
0.933333333333333,11.7872611678076,15.3803236445526,6.88716424787524,-0.00398384248173489,1,15.5,29.9
0.966666666666667,11.786399954395,15.6098277848401,6.88318127501236,-0.00398297286288418,1,15.5,29.9
1,11.7855124133049,15.8391990725162,6.87919916687057,-0.00398210814178146,1,15.5,29.9
1.03333333333333,11.7845986725624,16.068437533709,6.87521792040342,-0.00398124646715026,1,15.5,29.9
1.06666666666667,11.7836588135729,16.2975431943135,6.87123753366383,-0.00398038673959267,1,15.5,29.9
1.1,11.7826928778129,16.5265160800267,6.86725800524916,-0.00397952841467308,1,15.5,29.9
1.13333333333333,11.7817008805362,16.7553562164017,6.86327933394601,-0.00397867130315266,1,15.5,29.9
1.16666666666667,11.7806828264474,16.9840636289083,6.85930151855143,-0.00397781539457487,1,15.5,29.9
1.2,11.779638723208,17.2126383429881,6.85532455782828,-0.00397696072315412,1,15.5,29.9
1.23333333333333,11.7785685902317,17.4410803840962,6.85134845054394,-0.00397610728433584,1,15.5,29.9
1.26666666666667,11.7774724619793,17.6693897777221,6.84737319554422,-0.00397525499972495,1,15.5,29.9
1.3,11.776350386451,17.8975665493919,6.84339879182346,-0.00397440372075675,1,15.5,29.9
1.33333333333333,11.7752024205164,18.1256107246563,6.83942523856646,-0.00397355325699511,1,15.5,29.9
1.36666666666667,11.7740286240541,18.3535223290706,6.83545253515229,-0.00397270341417144,1,15.5,29.9
1.4,11.7728290546547,18.5813013881742,6.83148068112341,-0.00397185402888134,1,15.5,29.9
1.43333333333333,11.7716037640715,18.8089479274755,6.82750967613212,-0.00397100499129532,1,15.5,29.9
1.46666666666667,11.7703527968907,19.0364619724446,6.82353951987987,-0.00397015625224917,1,15.5,29.9
1.5,11.769076191244,19.2638435485158,6.81957021206383,-0.0039693078160381,1,15.5,29.9
1.53333333333333,11.7677739809348,19.491092681096,6.81560175234038,-0.00396845972344551,1,15.4972222222222,29.9
1.56666666666667,11.7664461981562,19.7182093955775,6.81163414030937,-0.00396761203100926,1,15.4888888888889,29.9
1.6,11.7650928760219,19.9451937173504,6.80766737551738,-0.00396676479198987,1,15.475,29.9
1.63333333333333,11.7637140503522,20.1720456718122,6.80370145747442,-0.00396591804295898,1,15.4555555555556,29.9
1.66666666666667,11.7623097604595,20.3987652843732,6.79973638567676,-0.00396507179766914,1,15.4305555555556,29.9
1.7,11.7608800489659,20.6253525804564,6.79577215962883,-0.00396422604792512,1,15.4,29.9
1.73333333333333,11.7594249609075,20.851807585494,6.79180877885927,-0.00396338076956315,1,15.3666666666667,29.9
1.76666666666667,11.7579445424876,21.0781303249207,6.78784624292827,-0.00396253593100226,1,15.3333333333333,29.9
1.8,11.7564388398403,21.304320824167,6.78388455142652,-0.00396169150174064,1,15.3,29.9
1.83333333333333,11.7549078980844,21.5303791086539,6.77992370396768,-0.00396084745884551,1,15.2666666666667,29.9
1.86666666666667,11.7533517608161,21.7563052037897,6.77596370017735,-0.00396000379032824,1,15.2333333333333,29.9
1.9,11.7517704700563,21.9820991349686,6.77200453968203,-0.00395916049532463,1,15.2,29.9
1.93333333333333,11.7501640665592,22.2077609275726,6.76804622210032,-0.00395831758170839,1,15.1666666666667,29.9
1.96666666666667,11.7485325903299,22.4332906069742,6.76408874703804,-0.00395747506228172,1,15.1333333333333,29.9
2,11.7468760811832,22.6586881985401,6.76013211408733,-0.00395663295070481,1,15.1,29.9
2.03333333333333,11.7451945792059,22.8839537277504,6.75617633854817,-0.00395577553915683,1,15.0666666666667,29.9
2.06666666666667,11.7434889423592,23.109087227878,6.75222150111261,-0.00395483743556202,1,15.0333333333333,29.9
2.1,11.7417627065391,23.3340887581647,6.74826787525875,-0.00395362585386305,1,15,29.9
2.13333333333333,11.7400187214401,23.558958389792,6.74431623863884,-0.00395163661991038,1,14.9666666666667,29.9
2.16666666666667,11.7382585034475,23.7836962304673,6.74036884837775,-0.00394739026108581,1,14.9333333333333,29.9
2.2,11.7364826140959,24.0083025082399,6.73643146306984,-0.00393738530791143,1,14.9,29.9
2.23333333333333,11.734691008623,24.2327777166949,6.73251449267776,-0.00391697039207983,1,14.8666666666667,29.9
2.26666666666667,11.7328833098159,24.4571227456587,6.72863072758632,-0.00388376509144273,1,14.8333333333333,29.9
2.3,11.7310589953097,24.6813388718692,6.7247897832742,-0.00384094431211857,1,14.8,29.9
2.33333333333333,11.7292175082796,24.9054276023196,6.72099602216191,-0.00379376111229135,1,14.7666666666667,29.9
2.36666666666667,11.7273583097351,25.1293908071009,6.71731129861711,-0.00368472354480343,1,14.7333333333333,29.9
2.4,11.725480700035,25.3532563142067,6.71584530211679,-0.00146599650031654,1,14.7,29.9
2.43333333333333,11.7235831586577,25.5771620801261,6.72006429994844,0.00421899783165003,1,14.6666666666667,29.9
2.46666666666667,11.7216627996155,25.8013186765213,6.73094880041819,0.0108845004697544,1,14.6333333333333,29.9
2.5,11.7197139744565,26.0259492390828,6.7484734648383,0.0175246644201099,1,14.6,29.9
2.53333333333333,11.717731774026,26.2512696635892,6.7722776560463,0.0238041912079989,4,14.5666666666667,29.9
2.56666666666667,11.7157127497959,26.4774798909322,6.80177074866921,0.0294930926229044,4,14.5333333333333,29.9
2.6,11.7136545801779,26.7047588109026,6.836313325439,0.0345425767697973,4,14.5,29.9
2.63333333333333,11.711555714438,26.9332644376138,6.87529295548821,0.0389796300492025,4,14.4666666666667,29.9
2.66666666666667,11.7094150774881,27.1631348208061,6.91812317116206,0.0428302156738525,4,14.4333333333333,29.9
2.7,11.707231857107,27.3944891101952,6.96426384571207,0.0461406745500108,4,14.4,29.9
2.73333333333333,11.7050053605868,27.6274296772144,7.01324877200647,0.0489849262943984,4,14.3666666666667,29.9
2.76666666666667,11.7027349300711,27.8620444712924,7.06467631645662,0.0514275444501475,4,14.3333333333333,29.9
2.8,11.7004199012012,28.0984089430202,7.11819612676589,0.0535198103092718,4,14.3,29.9
2.83333333333333,11.6980595866402,28.3365875282829,7.17349487930843,0.0552987525425408,4,14.2666666666667,29.9
2.86666666666667,11.6956532726205,28.5766345966097,7.23027941900558,0.0567845396971469,4,14.2333333333333,29.9
2.9,11.6932002212231,28.8185949613799,7.28827004583563,0.0579906268300583,4,14.2,29.9
2.93333333333333,11.690699671984,29.0625044802472,7.34721174237306,0.0589416965374214,4,14.1666666666667,29.9
2.96666666666667,11.6881508409228,29.3083910645478,7.40688304599693,0.0596713036238743,4,14.1333333333333,29.9
3,11.6855529216596,29.5562757866048,7.46709475266857,0.0602117066716437,4,14.1,29.9
3.03333333333333,11.682905091303,29.806173913156,7.52768769500199,0.0605929423334146,4,14.0666666666667,29.9
3.06666666666667,11.680206520066,30.0580959295208,7.58853476264887,0.0608470676468844,4,14.0333333333333,29.9
3.1,11.6774563822736,30.3120486035842,7.64953858680835,0.0610038241594797,4,14,29.9
3.13333333333333,11.6746538696498,30.5680357407635,7.71061573604213,0.06107714923378,4,13.9666666666667,29.9
3.16666666666667,11.6717982061062,30.8260584670438,7.77168992974511,0.0610741937029804,4,13.9333333333333,29.9
3.2,11.6688886561564,31.0861156382328,7.83270321186144,0.061013282116325,4,13.9,29.9
3.23333333333333,11.6659245241686,31.3482045544168,7.89361903389117,0.0609158220297283,4,13.8666666666667,29.9
3.26666666666667,11.6629051494116,31.6123215266833,7.95441310182862,0.0607940679374543,4,13.8333333333333,29.9
3.3,11.6598298996846,31.8784621576689,8.01506568620641,0.0606525843777908,4,13.8,29.9
3.33333333333333,11.6566963003331,32.1466212703705,8.0755488346756,0.060483148469185,4,13.7666666666667,29.9
3.36666666666667,11.6534940648621,32.4167924444938,8.13582146358949,0.0602726289138946,4,13.7333333333333,29.9
3.4,11.6502049680005,32.6889675764173,8.19583129568275,0.0600098320932627,4,13.7,29.9
3.43333333333333,11.6468016945044,32.9631366889222,8.25552426482988,0.0596929691471235,4,13.6666666666667,29.9
3.46666666666667,11.6432586254416,33.2392873539754,8.31480259684019,0.0592783320103116,4,13.6333333333333,29.9
3.5,11.639557141547,33.5174040539363,8.37359395100956,0.0587913541693741,4,13.6,29.9
3.53333333333333,11.6356848097894,33.7974699640645,8.4318877673516,0.0582938163420401,4,13.5666666666667,29.9
3.56666666666667,11.6316371854992,34.0794691770938,8.48974013170944,0.0578523643578333,4,13.5333333333333,29.9
3.6,11.6274173790607,34.3633879854487,8.54720996659553,0.0574698348860903,4,13.5,29.9
3.63333333333333,11.6230303299756,34.6492142524647,8.60432713410433,0.0571171675088085,4,13.4666666666667,29.9
3.66666666666667,11.6184829134677,34.936936169009,8.66108346215295,0.0567563280486194,4,13.4333333333333,29.9
3.7,11.6137799275883,35.226541722733,8.7174829279299,0.0563994657769467,4,13.4,29.9
3.73333333333333,11.6089248992712,35.5180193433694,8.77354649141943,0.0560635634895341,4,13.3666666666667,29.9
3.76666666666667,11.6039252571552,35.8113583313673,8.82929934632384,0.0557528549044033,4,13.3333333333333,29.9
3.8,11.5987950446954,36.1065489267484,8.88476512222237,0.0554657758985293,4,13.3,29.9
3.83333333333333,11.5935515659737,36.4035822050028,8.93996582156713,0.0552006993447645,4,13.2666666666667,29.9
3.86666666666667,11.5882096778796,36.7024499055604,8.99492153317201,0.0549557116048742,4,13.2333333333333,29.9
3.9,11.5827814809709,37.0031444075737,9.04965149840709,0.0547299652350883,4,13.2,29.9
3.93333333333333,11.5772759815025,37.3056585449087,9.10416784058318,0.0545163421760826,4,13.1666666666667,29.9
3.96666666666667,11.5716966512249,37.609985465794,9.15848348015045,0.054315639567271,4,13.1333333333333,29.9
4,11.5660430881222,37.91611868927,9.21261182619279,0.0541283460423401,4,13.1,29.9
4.03333333333333,11.5603130053214,38.2240521455178,9.26656617212257,0.0539543459297835,4,13.0666666666667,29.9
4.06666666666667,11.5545034145408,38.5337802729543,9.32036738913218,0.0538012170096103,4,13.0333333333333,29.9
4.1,11.5486123146316,38.8452983584336,9.37403841936141,0.0536710302292285,4,13,29.9
4.13333333333333,11.542642276402,39.1586021194326,9.42757611953116,0.0535377001697501,4,12.9666666666667,29.9
