Time,x_ego,y_ego,velocity,acceleration,action,x_ped,y_ped
0,11.8,8.9,7,0,1,15.5,29.9
0.0333333333333333,11.8,9.13327037939431,6.99615577953002,-0.00384422046998356,1,15.5,29.9
0.0666666666666667,11.8,9.36640659881126,6.99196947109348,-0.00418630843653833,1,15.5,29.9
0.1,11.8,9.59940075527911,6.98769498718995,-0.00427448390352669,1,15.5,29.9
0.133333333333333,11.8,9.83225378528415,6.9834976545359,-0.00419733265404787,1,15.5,29.9
0.166666666666667,11.8,10.0649678802301,6.97935585456763,-0.00414179996826913,1,15.5,29.9
0.2,11.8,10.2975446186632,6.97525409491249,-0.00410175965514537,1,15.5,29.9
0.233333333333333,11.8,10.5299851399444,6.97118127319767,-0.00407282171482137,1,15.5,29.9
0.266666666666667,11.8,10.7622902687052,6.96712943294736,-0.00405184025031069,1,15.5,29.9
0.3,11.8,10.9944606040335,6.96309287213007,-0.00403656081728965,1,15.5,29.9
0.333333333333333,11.8,11.2264965833863,6.95906750439986,-0.00402536773020401,1,15.5,29.9
0.366666666666667,11.8,11.4583985283897,6.95505040137947,-0.00401710302039238,1,15.5,29.9
0.4,11.8,11.6901666776599,6.95103946463339,-0.00401093674607722,1,15.5,29.9
0.433333333333333,11.8,11.9218012103233,6.94703319054231,-0.00400627409108711,1,15.5,29.9
0.466666666666667,11.8,12.1533022628712,6.94303050173604,-0.00400268880626342,1,15.5,29.9
0.5,11.8,12.3846699412377,6.93903062623031,-0.00399987550573222,1,15.5,29.9
0.533333333333333,11.8,12.6159043294559,6.93503301077307,-0.00399761545723631,1,15.5,29.9
0.566666666666667,11.8,12.8470054958598,6.93103725873891,-0.00399575203416092,1,15.5,29.9
0.6,11.8,13.0779734975296,6.92704308564579,-0.003994173093127,1,15.5,29.9
0.633333333333333,11.8,13.3088083834769,6.92305028732138,-0.00399279832440236,1,15.5,29.9
0.666666666666667,11.8,13.539510196927,6.91905871714157,-0.00399157017981544,1,15.5,29.9
0.7,11.8,13.7700789769551,6.91506826976362,-0.00399044737794529,1,15.5,29.9
0.733333333333333,11.8,14.0005147596581,6.91107886949752,-0.00398940026610006,1,15.5,29.9
0.766666666666667,11.8,14.2308175789948,6.90709046198042,-0.00398840751710594,1,15.5,29.9
0.8,11.8,14.460987467388,6.90310300819923,-0.00398745378118903,1,15.5,29.9
0.833333333333333,11.7999983743877,14.6910244561545,6.89911648150965,-0.00398652668957578,1,15.5,29.9
0.866666666666667,11.799988190892,14.920928575781,6.89513087260022,-0.00398560890943678,1,15.5,29.9
0.9,11.7999639127544,15.1506998559816,6.89114617738041,-0.00398469521980971,1,15.5,29.9
0.933333333333333,11.7999218219115,15.3803383256361,6.88716239559111,-0.00398378178929981,1,15.5,29.9
0.966666666666667,11.7998573568306,15.6098440126188,6.88317952618131,-0.00398286940979453,1,15.5,29.9
1,11.7997670498139,15.8392169437064,6.87919756908454,-0.00398195709677296,1,15.5,29.9
1.03333333333333,11.7996460055315,16.0684571441875,6.87521654856583,-0.00398102051871341,1,15.5,29.9
1.06666666666667,11.7994877230824,16.2975646371988,6.87123649434554,-0.00398005422028369,1,15.5,29.9
1.1,11.7992857767368,16.5265394433126,6.86725739281385,-0.00397910153168723,1,15.5,29.9
1.13333333333333,11.7990369605542,16.7553815814462,6.86327917893218,-0.00397821388167152,1,15.5,29.9
1.16666666666667,11.7987409426471,16.9840910700345,6.85930178859154,-0.00397739034064681,1,15.5,29.9
1.2,11.7983991486103,17.2126679280623,6.85532517715528,-0.00397661143625605,1,15.5,29.9
1.23333333333333,11.7980139034771,17.4411121757993,6.85134932525629,-0.00397585189898741,1,15.5,29.9
1.26666666666667,11.797587841402,17.6694238351256,6.84737423435873,-0.00397509089756198,1,15.5,29.9
1.3,11.7971235432844,17.8976029294944,6.84339991819283,-0.0039743161659036,1,15.5,29.9
1.33333333333333,11.7966233414939,18.125649483655,6.83942639484829,-0.00397352334454038,1,15.5,29.9
1.36666666666667,11.7960892310027,18.3535635232648,6.83545368163527,-0.00397271321301496,1,15.5,29.9
1.4,11.7955228390826,18.5813450744838,6.83148179276908,-0.00397188886619482,1,15.5,29.9
1.43333333333333,11.7949254232151,18.8089941636071,6.82751073899007,-0.00397105377901052,1,15.5,29.9
1.46666666666667,11.7942978828902,19.0365108167618,6.82354052811377,-0.00397021087630112,1,15.5,29.9
1.5,11.7936407820081,19.2638950596823,6.81957116578128,-0.00396936233248368,1,15.5,29.9
1.53333333333333,11.7929543836727,19.4911469175718,6.81560265603455,-0.0039685097467288,1,15.4916666666667,29.9
1.56666666666667,11.7922386992129,19.7182664150502,6.81163500162077,-0.00396765441378299,1,15.4666666666667,29.9
1.6,11.7914935502913,19.9452535761855,6.80766820409209,-0.00396679752868145,1,15.425,29.9
1.63333333333333,11.7907186391812,20.1721084245942,6.8037022638237,-0.00396594026839114,1,15.3752276867031,29.9
1.66666666666667,11.7899136195105,20.3988309835887,6.79973718006126,-0.00396508376243698,1,15.3259107468124,29.9
1.7,11.7890781589722,20.6254212763451,6.79577295106441,-0.00396422899685245,1,15.2770491803279,29.9
1.73333333333333,11.7882119868449,20.8518793260608,6.79180957436266,-0.00396337670175129,1,15.2286429872495,29.9
1.76666666666667,11.7873149221231,21.0782051560798,6.78784704709778,-0.00396252726488022,1,15.1806921675774,29.9
1.8,11.786386881711,21.3043987899684,6.78388536639809,-0.00396168069968184,1,15.1331967213115,29.9
1.83333333333333,11.7854278715454,21.5304602515363,6.77992452971848,-0.00396083667961822,1,15.0861566484517,29.9
1.86666666666667,11.7844379659139,21.7563895648116,6.77596453508619,-0.00395999463228947,1,15.0395719489982,29.9
1.9,11.7834172812595,21.9821867539811,6.77200538121522,-0.00395915387096313,1,14.9934426229508,29.9
1.93333333333333,11.7823659503993,22.2078518433172,6.76804706748358,-0.00395831373164146,1,14.9477686703097,29.9
1.96666666666667,11.7812841016538,22.4333848571064,6.76408959379886,-0.00395747368472144,1,14.9025500910747,29.9
2,11.7801718453858,22.6587858195955,6.76013296039871,-0.00395663340015329,1,14.8577868852459,29.9
2.03333333333333,11.7790292684007,22.8840547549603,6.75617716763878,-0.00395579275992652,1,14.8134790528233,29.9
2.06666666666667,11.7778564350037,23.1091916872993,6.75222221581315,-0.00395495182562922,1,14.7696265938069,29.9
2.1,11.7766533924949,23.3341966406463,6.7482681050352,-0.00395411077795238,1,14.7262295081967,29.9
2.13333333333333,11.7754201785802,23.5590696389947,6.74431483518781,-0.00395326984738897,1,14.6832877959927,29.9
2.16666666666667,11.7741568284753,23.7838107063244,6.74036240593495,-0.00395242925285988,1,14.6408014571949,29.9
2.2,11.7728633801764,24.0084198666245,6.73641081677596,-0.00395158915898897,1,14.5987704918033,29.9
2.23333333333333,11.7715398772169,24.2328971439064,6.73246006711964,-0.00395074965632425,1,14.5571948998179,29.9
2.26666666666667,11.7701863689989,24.4572425622073,6.72851015635684,-0.00394991076279361,1,14.5160746812386,29.9
2.3,11.7688029093326,24.6814561455848,6.72456108391607,-0.00394907244077114,1,14.4754098360656,29.9
2.33333333333333,11.7673903272044,24.9055379223231,6.72061279056005,-0.00394829335602331,1,14.4352003642987,29.9
2.36666666666667,11.7659519856968,25.1294879352602,6.71666525810547,-0.00394753245458368,1,14.3954462659381,29.9
2.4,11.7644905993284,25.3533062252078,6.71271853685758,-0.00394672124788631,1,14.3561475409836,29.9
2.43333333333333,11.7630076183494,25.5769928268579,6.70877265958187,-0.00394587727570972,1,14.3173041894353,29.9
2.46666666666667,11.7615035853422,25.8005477700498,6.70482764302268,-0.00394501655919388,1,14.2789162112933,29.9
2.5,11.7599784661385,26.023971081197,6.70088349236585,-0.00394415065682274,1,14.2409836065574,29.9
2.53333333333333,11.7584319113928,26.2472627845637,6.69694020587034,-0.00394328649551401,1,14.2035063752277,29.9
2.56666666666667,11.7568634358772,26.4704229032303,6.69299777849046,-0.00394242737988293,1,14.1664845173042,29.9
2.6,11.7552725241135,26.6934514597206,6.68905620428178,-0.00394157420867192,1,14.1299180327869,29.9
2.63333333333333,11.753658682271,26.9163484763563,6.68511547777256,-0.00394072650922883,1,14.0938069216758,29.9
2.66666666666667,11.752021458631,27.1391139754402,6.68117559456176,-0.00393988321079419,1,14.0581511839709,29.9
2.7,11.7503604510615,27.3617479793653,6.67723655138983,-0.00393904317192817,1,14.0229508196721,29.9
2.73333333333333,11.7486753130184,27.584250510714,6.67329834590319,-0.00393820548664792,1,13.9882058287796,29.9
2.76666666666667,11.7469657624322,27.806621592374,6.66936097630506,-0.00393736959812774,1,13.9539162112933,29.9
2.8,11.7452315923881,28.0288612476627,6.66542444103989,-0.00393653526516591,1,13.9200819672131,29.9
2.83333333333333,11.7434726797,28.2509695004332,6.66148873859808,-0.00393570244181429,1,13.9200819672131,29.9
2.86666666666667,11.7416889872327,28.4729463751314,6.6575538674653,-0.00393487113277313,1,13.9200819672131,29.9
2.9,11.739880557466,28.6947918967843,6.6536198261901,-0.00393404127520114,1,13.9200819672131,29.9
2.93333333333333,11.7380474972695,28.916506090915,6.64968661351311,-0.0039332126769942,1,13.9200819672131,29.9
2.96666666666667,11.7361899562146,29.1380889833994,6.6457542284944,-0.00393238501870385,1,13.9200819672131,29.9
3,11.7343081022765,29.3595406002911,6.64182267058782,-0.00393155790658462,1,13.9200819672131,29.9
3.03333333333333,11.7324020991637,29.5808609676481,6.63789193963618,-0.00393073095164365,1,13.9200819672131,29.9
3.06666666666667,11.7304720888189,29.8020501113896,6.63396203578977,-0.00392990384640868,1,13.9200819672131,29.9
3.1,11.7285181812044,30.0231080572036,6.63003295937278,-0.00392907641698415,1,13.9200819672131,29.9
3.13333333333333,11.7265404517695,30.2440348305132,6.62610471073357,-0.00392824863921692,1,13.9200819672131,29.9
3.16666666666667,11.7245389454638,30.464830456496,6.62217729011351,-0.00392742062005791,1,13.9200819672131,29.9
3.2,11.7225136851131,30.6854949601419,6.61825069755918,-0.00392659255432637,1,13.9200819672131,29.9
3.23333333333333,11.7204646815757,30.9060283663301,6.6143249328881,-0.00392576467108707,1,13.9200819672131,29.9
3.26666666666667,11.7183919433073,31.1264306999065,6.61039999570468,-0.0039249371834158,1,13.9200819672131,29.9
3.3,11.7162954836197,31.3467019857449,6.60647588545326,-0.00392411025142447,1,13.9200819672131,29.9
3.33333333333333,11.714175324792,31.5668422487851,6.60255260148961,-0.00392328396364316,1,13.9200819672131,29.9
3.36666666666667,11.7120314990432,31.7868515140443,6.59863014315278,-0.00392245833683624,1,13.9200819672131,29.9
3.4,11.7098640470314,32.0067298066074,6.59470850982239,-0.00392163333038997,1,13.9200819672131,29.9
3.43333333333333,11.7076730148993,32.2264771516033,6.59078770095307,-0.00392080886931989,1,13.9200819672131,29.9
3.46666666666667,11.7054584509354,32.4460935741765,6.58686771608409,-0.00391998486897194,1,13.9200819672131,29.9
3.5,11.7032204027262,32.6655790994618,6.58294855482822,-0.00391916125587422,1,13.9200819672131,29.9
3.53333333333333,11.7009589153297,32.8849337525669,6.57903021684729,-0.00391833798092733,1,13.9200819672131,29.9
3.56666666666667,11.6986740306274,33.104157558566,6.57511270182341,-0.00391751502388704,1,13.9200819672131,29.9
3.6,11.6963657876943,33.3232505425025,6.5711960094332,-0.00391669239020587,1,13.9200819672131,29.9
3.63333333333333,11.6940342238252,33.5422127293978,6.56728013933042,-0.00391587010278371,1,13.9200819672131,29.9
3.66666666666667,11.6916793757903,33.7610441442637,6.5633650911386,-0.00391504819181687,1,13.9200819672131,29.9
3.7,11.6893012809441,33.9797448121126,6.55945086445312,-0.00391422668547481,1,13.9200819672131,29.9
3.73333333333333,11.6869007733398,34.198314766126,6.55553740746445,-0.00391345698867873,1,13.9200819672131,29.9
3.76666666666667,11.6844813061628,34.4167540669728,6.5516247041174,-0.00391270334704874,1,13.9200819672131,29.9
3.8,11.682045685556,34.6350627699575,6.54771279860593,-0.0039119055114698,1,13.9200819672131,29.9
3.83333333333333,11.6795954206551,34.8532409177241,6.5438017196435,-0.00391107896242904,1,13.9200819672131,29.9
3.86666666666667,11.6771310771885,35.0712885433009,6.53989148164966,-0.00391023799383916,1,13.9200819672131,29.9
3.9,11.6746526117457,35.2892056732091,6.53598208885926,-0.00390939279039948,1,13.9200819672131,29.9
3.93333333333333,11.6721596403095,35.5069923300922,6.53207353956055,-0.00390854929871143,1,13.9200819672131,29.9
3.96666666666667,11.6696516257773,35.7246485346346,6.52816582931062,-0.00390771024992986,1,13.9200819672131,29.9
4,11.6671279914693,35.9421743067734,6.5242589529813,-0.00390687632931641,1,13.9200819672131,29.9
4.03333333333333,11.6645881796947,36.1595696663637,6.52035290587161,-0.00390604710969367,1,13.9200819672131,29.9
4.06666666666667,11.6620316774047,36.3768346335044,6.51644768416898,-0.00390522170262475,1,13.9200819672131,29.9
4.1,11.6594580274438,36.5939692287145,6.51254328499044,-0.00390439917854657,1,13.9200819672131,29.9
4.13333333333333,11.6568668371019,36.8109734730783,6.508639706188,-0.00390357880243641,1,13.9200819672131,29.9
4.16666666666667,11.6542577884872,37.0278473884109,6.50473694606968,-0.00390276011832125,1,13.9200819672131,29.9
4.2,11.6516306497172,37.2445909974288,6.50083500315023,-0.00390194291944468,1,13.9200819672131,29.9
4.23333333333333,11.6489852830669,37.4612043238843,6.49693387600005,-0.00390112715018809,1,13.9200819672131,29.9
4.26666666666667,11.6463216459904,37.6776873926124,6.49303356321137,-0.00390031278868008,1,13.9200819672131,29.9
4.3,11.6436397826416,37.8940402294618,6.48913406346038,-0.00389949975098514,1,13.9200819672131,29.9
4.33333333333333,11.6409398061035,38.1102628611099,6.48523537561803,-0.00389868784235414,1,13.9200819672131,29.9
4.36666666666667,11.6382226217212,38.3263553237564,6.48133746002696,-0.00389791559107078,1,13.9200819672131,29.9
4.4,11.6354916176044,38.5423176838684,6.4774403044632,-0.00389715556375769,1,13.9200819672131,29.9
4.43333333333333,11.6327495725026,38.7581500015813,6.47354394298883,-0.00389636147437322,1,13.9200819672131,29.9
4.46666666666667,11.6299980193586,38.9738523225819,6.4696483980339,-0.00389554495492384,1,13.9200819672131,29.9
4.5,11.6272375622607,39.1894246814609,6.46575368092635,-0.00389471710754918,1,13.9200819672131,29.9
4.53333333333333,11.6244681868788,39.4048671051846,6.46185979504222,-0.00389388588413286,1,13.9200819672131,29.9
