Time,x_ego,y_ego,velocity,acceleration,action,x_ped,y_ped
0,11.8,15.9,5,0,1,15.5,29.9
0.0333333333333333,11.799994561939,16.0666076888319,4.99642263576418,-0.00357736423581567,1,15.5,29.9
0.0666666666666667,11.7999596752166,16.2330926526628,4.99264782574086,-0.00377481002332214,1,15.5,29.9
0.1,11.7998745937019,16.3994492926607,4.98873225914139,-0.00391556659947323,1,15.5,29.9
0.133333333333333,11.7997273644594,16.5656736048075,4.9847164371638,-0.0040158219775881,1,15.5,29.9
0.166666666666667,11.7995139237053,16.7317627259448,4.98062911922228,-0.00408731794152128,1,15.5,29.9
0.2,11.799238304809,16.8977146119698,4.97649066856674,-0.00413845065553531,1,15.5,29.9
0.233333333333333,11.7989103720588,17.0635278104533,4.97231561902924,-0.00417504953750925,1,15.5,29.9
0.266666666666667,11.7985439871005,17.2292012993357,4.96811439323718,-0.00420122579205806,1,15.5,29.9
0.3,11.798157033764,17.3947343723625,4.96389457640377,-0.00421981683340267,1,15.5,29.9
0.333333333333333,11.7977678100116,17.560126552609,4.95966204793394,-0.00423252846983679,1,15.5,29.9
0.366666666666667,11.7973875449484,17.7253775201533,4.95542118530341,-0.00424086263053081,1,15.5,29.9
0.4,11.7970221994295,17.8904870631056,4.95117498714249,-0.00424619816092076,1,15.5,29.9
0.433333333333333,11.7966741091076,18.0554550439741,4.94692552245381,-0.00424946468867482,1,15.5,29.9
0.466666666666667,11.7963428767945,18.2202813765562,4.94267421298039,-0.00425130947341668,1,15.5,29.9
0.5,11.7960261223424,18.3849660105393,4.93842204232483,-0.00425217065556183,1,15.5,29.9
0.533333333333333,11.7957200898642,18.5495089212023,4.93416970019918,-0.00425234212565329,1,15.5,29.9
0.566666666666667,11.7954207681738,18.7139101033118,4.92991766090329,-0.00425203929588758,1,15.5,29.9
0.6,11.7951258320749,18.8781695685659,4.92566627680451,-0.00425138409877857,1,15.5,29.9
0.633333333333333,11.7948326409248,19.0422873387025,4.92141581660104,-0.00425046020347697,1,15.5,29.9
0.666666666666667,11.7945380378678,19.206263442167,4.91716647002817,-0.0042493465728688,1,15.5,29.9
0.7,11.7942388853595,19.3700979127157,4.91291837220118,-0.00424809782698343,1,15.5,29.9
0.733333333333333,11.7939325400636,19.5337907885955,4.90867161944905,-0.00424675275212927,1,15.5,29.9
0.766666666666667,11.7936171824811,19.6973421120053,4.90442627904302,-0.00424534040603763,1,15.5,29.9
0.8,11.7932919551031,19.8607519286159,4.90018239588825,-0.00424388315476332,1,15.5,29.9
0.833333333333333,11.7929569081999,20.0240202870151,4.8959399985347,-0.00424239735354881,1,15.5,29.9
0.866666666666667,11.7926127926695,20.1871472380387,4.89169910520768,-0.00424089332702859,1,15.5,29.9
0.9,11.7922607656505,20.350132834033,4.88745972912795,-0.00423937607973013,1,15.5,29.9
0.933333333333333,11.791902082589,20.5129771281345,4.88322188203485,-0.00423784709309594,1,15.5,29.9
0.966666666666667,11.7915378399184,20.6756801736627,4.87898557548699,-0.00423630654786056,1,15.5,29.9
1,11.7911688103278,20.8382420236913,4.87475082046314,-0.0042347550238464,1,15.5,29.9
1.03333333333333,11.790795384886,21.0006627308267,4.87051762629778,-0.00423319416536483,1,15.5,29.9
1.06666666666667,11.7904176103303,21.1629423471774,4.8662859998447,-0.00423162645307418,1,15.5,29.9
1.1,11.7900352912977,21.3250809244693,4.86205594525102,-0.00423005459368841,1,15.5,29.9
1.13333333333333,11.7896481191397,21.48707851424,4.85782746426389,-0.00422848098712869,1,15.5,29.9
1.16666666666667,11.7892557911989,21.6489351680419,4.85360055681112,-0.00422690745277166,1,15.5,29.9
1.2,11.7888580946048,21.8106509375977,4.84937522164604,-0.00422533516507961,1,15.5,29.9
1.23333333333333,11.7884549428474,21.9722258748731,4.84515145695704,-0.00422376468900065,1,15.5,29.9
1.26666666666667,11.7880463674796,22.1336600320622,4.84092926089389,-0.00422219606315011,1,15.5,29.9
1.3,11.7876324779165,22.2949534615058,4.83670863195711,-0.00422062893677033,1,15.5,29.9
1.33333333333333,11.7872134075535,22.4561062155758,4.83248956919356,-0.00421906276355433,1,15.5,29.9
1.36666666666667,11.7867892640702,22.6171183465654,4.82827207217946,-0.00421749701410423,1,15.5,29.9
1.4,11.7863600969972,22.7779899066136,4.82405614083617,-0.00421593134328813,1,15.5,29.9
1.43333333333333,11.7859258884434,22.9387209476796,4.8198417751705,-0.00421436566566769,1,15.5,29.9
1.46666666666667,11.7854865655674,23.099311521567,4.81562897503554,-0.00421280013495906,1,15.5,29.9
1.5,11.7850420277915,23.2597616799843,4.81141773997632,-0.00421123505922161,1,15.5,29.9
1.53333333333333,11.7845921790098,23.4200714746205,4.80720806918237,-0.00420967079394874,1,15.4777777777778,29.9
1.56666666666667,11.7841369553086,23.5802409572134,4.80299996153679,-0.00420810764557977,1,15.4111111111111,29.9
1.6,11.7836763414014,23.7402701795934,4.79879341573315,-0.00420654580363955,1,15.3,29.9
1.63333333333333,11.7832103729761,23.9001591936935,4.79458843042328,-0.00420498530986979,1,15.1698412698413,29.9
1.66666666666667,11.7827391262167,24.0599080515263,4.79038500435675,-0.00420342606653445,1,15.0460317460317,29.9
1.7,11.7822626988482,24.2195168051383,4.78618313647764,-0.00420186787910382,1,14.9285714285714,29.9
1.73333333333333,11.7817811885517,24.3789855065544,4.78198282595805,-0.00420031051959846,1,14.8174603174603,29.9
1.76666666666667,11.7812946743793,24.5383142077279,4.77778407216713,-0.00419875379091028,1,14.7126984126984,29.9
1.8,11.7808032052091,24.6975029605076,4.77358687459378,-0.00419719757335812,1,14.6142857142857,29.9
1.83333333333333,11.780306796938,24.8565518166273,4.76939123275091,-0.00419564184286969,1,14.5222222222222,29.9
1.86666666666667,11.779805437718,25.015460827717,4.76519714608987,-0.00419408666103394,1,14.4365079365079,29.9
1.9,11.7792990987052,25.1742300453304,4.76100461394438,-0.00419253214548831,1,14.3571428571429,29.9
1.93333333333333,11.7787877468685,25.3328595209797,4.75681363551191,-0.00419097843247052,1,14.284126984127,29.9
1.96666666666667,11.7782713564816,25.4913493061683,4.75262420986996,-0.00418942564195746,1,14.2174603174603,29.9
2,11.7777499167984,25.6496994524133,4.74843633601726,-0.00418787385269503,1,14.1571428571429,29.9
2.03333333333333,11.7772234347631,25.8079100112554,4.7442500129265,-0.00418632309076106,1,14.1031746031746,29.9
2.06666666666667,11.7766919329936,25.9659810342544,4.74006523959438,-0.0041847733321223,1,14.0555555555556,29.9
2.1,11.7761554443841,26.1239125729745,4.73588201507777,-0.00418322451661091,1,14.0142857142857,29.9
2.13333333333333,11.775614006365,26.2817043156438,4.73167853960738,-0.00420347547038791,1,13.9793650793651,29.9
2.16666666666667,11.7750686390581,26.4390387719063,4.70844617192346,-0.0232323676839199,3,13.9507936507936,29.9
2.2,11.7745209232427,26.595425931079,4.67484197906651,-0.033604192856953,3,13.9285714285714,29.9
2.23333333333333,11.7739713962186,26.7507217547375,4.64296710116927,-0.0318748778972378,3,13.9126984126984,29.9
2.26666666666667,11.7734199808613,26.9049842712017,4.61284454987186,-0.0301225512974046,3,13.9031746031746,29.9
2.3,11.7728666098038,27.0582715395366,4.5844532098247,-0.0283913400471691,3,13.9,29.9
2.33333333333333,11.7723112211909,27.2106412714056,4.55779338085416,-0.0266598289705398,3,13.9,29.9
2.36666666666667,11.7717536560714,27.3621802494421,4.53460899321928,-0.0231843876348723,3,13.9,29.9
2.4,11.7711932800895,27.5129465447376,4.51143358619743,-0.0231754070218573,3,13.9,29.9
2.43333333333333,11.7706275047825,27.6629982135894,4.4917330267905,-0.0197005594069237,3,13.9,29.9
2.46666666666667,11.7700536387954,27.812508471336,4.47895088635074,-0.0127821404397617,1,13.9,29.9
2.5,11.769469766884,27.9616792043871,4.47136370892178,-0.00758717742896398,1,13.9,29.9
2.53333333333333,11.7688749074405,28.1106552152725,4.46726978505557,-0.00409392386620322,1,13.9,29.9
2.56666666666667,11.7682689453721,28.2594947938794,4.46318003900545,-0.00408974605012702,1,13.9,29.9
2.6,11.7676523612725,28.4081980674434,4.45909376491734,-0.00408627408810958,1,13.9,29.9
2.63333333333333,11.7670258723045,28.5567651424192,4.45501046424303,-0.00408330067430462,1,13.9,29.9
2.66666666666667,11.7663903055595,28.7051961102407,4.45092976540369,-0.00408069883934115,1,13.9,29.9
2.7,11.7657465038532,28.8534910514123,4.44685137152109,-0.00407839388260189,1,13.9,29.9
2.73333333333333,11.7650952591579,29.0016500384148,4.44277503319696,-0.00407633832412646,1,13.9,29.9
2.76666666666667,11.7644372666663,29.1496731377667,4.43870054027419,-0.00407449292277295,1,13.9,29.9
2.8,11.763773093455,29.2975604114832,4.43462772460432,-0.00407281566986928,1,13.9,29.9
2.83333333333333,11.7631031583288,29.445311918113,4.43055646583936,-0.00407125876496206,1,13.9,29.9
2.86666666666667,11.7624277221275,29.5929277134874,4.42648669405978,-0.00406977177958012,1,13.9,29.9
2.9,11.7617468894291,29.7404078512837,4.42241838594536,-0.00406830811441683,1,13.9,29.9
2.93333333333333,11.761060622707,29.8877523834785,4.41835155426132,-0.00406683168403799,1,13.9,29.9
2.96666666666667,11.7603687687142,30.0349613607375,4.41428623284721,-0.00406532141411642,1,13.9,29.9
3,11.7596710947961,30.1820348327704,4.41022246056551,-0.00406377228169585,1,13.9,29.9
3.03333333333333,11.7589673307675,30.3289728486567,4.40616026769649,-0.00406219286901877,1,13.9,29.9
3.06666666666667,11.7582572106606,30.4757754571351,4.40209966730396,-0.00406060039253653,1,13.9,29.9
3.1,11.7575405085114,30.6224427068448,4.39804065259789,-0.00405901470606285,1,13.9,29.9
3.13333333333333,11.7568170634658,30.7689746465038,4.39398319978086,-0.00405745281703496,1,13.9,29.9
3.16666666666667,11.7560867915766,30.9153713250168,4.38992727469134,-0.0040559250895198,1,13.9,29.9
3.2,11.7553496841901,31.0616327915127,4.38587284098055,-0.00405443371079173,1,13.9,29.9
3.23333333333333,11.7546057951958,31.2077590953232,4.38181986761638,-0.0040529733641641,1,13.9,29.9
3.26666666666667,11.7538552211073,31.353750285918,4.37776833407261,-0.0040515335437723,1,13.9,29.9
3.3,11.7530980786594,31.4996064128212,4.37371823240509,-0.00405010166751918,1,13.9,29.9
3.33333333333333,11.7523344842989,31.6453275255264,4.36966956628723,-0.0040486661178587,1,13.8991319444444,29.9
3.36666666666667,11.7515645388078,31.7909136734309,4.36562234776265,-0.00404721852458501,1,13.8965277777778,29.9
3.4,11.7507883186906,31.9363649057953,4.36157659284908,-0.00404575491356329,1,13.8921875,29.9
3.43333333333333,11.7500058743025,32.0816812717334,4.35753231716818,-0.00404427568090515,1,13.8861111111111,29.9
3.46666666666667,11.7492172333489,32.2268628202257,4.35348953253981,-0.00404278462836594,1,13.8782986111111,29.9
3.5,11.7484224076018,32.3719096001496,4.3494482450798,-0.0040412874600122,1,13.86875,29.9
3.53333333333333,11.747621400517,32.5168216603146,4.34540845490117,-0.00403979017863421,1,13.8574652777778,29.9
3.56666666666667,11.7468142138224,32.6615990494931,4.34137015714976,-0.00403829775140174,1,13.8444444444444,29.9
3.6,11.7460008518824,32.8062418164423,4.33733334387245,-0.00403681327731586,1,13.8296875,29.9
3.63333333333333,11.7451813234935,32.9507500099139,4.33329800614267,-0.00403533772978104,1,13.8131944444444,29.9
3.66666666666667,11.7443556414944,33.0951236786521,4.32926413593603,-0.00403387020663448,1,13.7949652777778,29.9
3.7,11.7435238210485,33.2393628713864,4.32523172741185,-0.00403240852418563,1,13.775,29.9
3.73333333333333,11.742685877588,33.3834676368212,4.32120077745881,-0.00403094995304176,1,13.7532986111111,29.9
3.76666666666667,11.7418418252633,33.5274380236285,4.31717128555165,-0.00402949190715418,1,13.7298611111111,29.9
3.8,11.740991676384,33.671274080445,4.31314325310222,-0.00402803244943328,1,13.7046875,29.9
3.83333333333333,11.7401354419274,33.8149758558755,4.30911668255479,-0.00402657054742939,1,13.6777777777778,29.9
3.86666666666667,11.7392731328313,33.9585433984999,4.30509157647371,-0.00402510608108386,1,13.6491319444444,29.9
3.9,11.7384047615761,34.1019767568822,4.30106793681636,-0.00402363965734764,1,13.61875,29.9
3.93333333333333,11.737530343525,34.2452759795784,4.29704576450128,-0.00402217231507596,1,13.5866319444444,29.9
3.96666666666667,11.7366498976125,34.3884411151403,4.29302505929342,-0.00402070520786246,1,13.5527777777778,29.9
4,11.7357634461976,34.5314722121158,4.28900581995661,-0.00401923933681214,1,13.5171875,29.9
4.03333333333333,11.7348710141412,34.6743693190436,4.28498804457872,-0.00401777537788295,1,13.4798611111111,29.9
4.06666666666667,11.7339726273737,34.8171324844452,4.28097173096082,-0.00401631361790677,1,13.4407986111111,29.9
4.1,11.7330683113284,34.9597617568166,4.27695687697379,-0.00401485398703194,1,13.4,29.9
4.13333333333333,11.7321580896127,35.1022571846195,4.272943480816,-0.00401339615778884,1,13.3574652777778,29.9
4.16666666666667,11.7312419831997,35.2446188162773,4.26893154114191,-0.00401193967408986,1,13.3131944444444,29.9
4.2,11.7303200102607,35.3868467001727,4.26492105706604,-0.00401048407586924,1,13.2671875,29.9
4.23333333333333,11.7293921866006,35.5289408846509,4.26091202807168,-0.00400902899435707,1,13.2194444444444,29.9
4.26666666666667,11.7284585265151,35.6709014180236,4.25690445386648,-0.00400757420520392,1,13.1699652777778,29.9
4.3,11.7275190438211,35.8127283485755,4.25289833422779,-0.00400611963868513,1,13.11875,29.9
4.33333333333333,11.7265737528026,35.9544217245698,4.2488936688724,-0.00400466535539312,1,13.0657986111111,29.9
4.36666666666667,11.725622668875,36.0959815942525,4.24489045737135,-0.00400321150104421,1,13.0111111111111,29.9
4.4,11.7246658088654,36.2374080058541,4.24088869911637,-0.00400175825498739,1,12.9546875,29.9
4.43333333333333,11.7237031909079,36.3787010087739,4.23688856578649,-0.00400013332987292,1,12.8965277777778,29.9
4.46666666666667,11.7227348338533,36.5198606860264,4.23289242598954,-0.00399613979695612,1,12.8366319444444,29.9
4.5,11.7217607560706,36.6608872593493,4.22890602099845,-0.0039864049910836,1,12.775,29.9
4.53333333333333,11.7207809743792,36.8017811712996,4.22493652888505,-0.00396949211340836,1,12.7116319444444,29.9
4.56666666666667,11.7197955034827,36.9425431060446,4.22099111906229,-0.00394540982275782,1,12.6465277777778,29.9
4.6,11.7188043558051,37.0831739772004,4.21707630457423,-0.00391481448806186,1,12.5796875,29.9
4.63333333333333,11.7178075416482,37.2236748976211,4.21319745983758,-0.00387884473665068,1,12.5111111111111,29.9
4.66666666666667,11.7168050695878,37.3640471377927,4.20935868858627,-0.00383877125130461,1,12.4407986111111,29.9
4.7,11.7157969469505,37.5042920860281,4.20556297574487,-0.00379571284140123,1,12.36875,29.9
4.73333333333333,11.7147831802787,37.6444112117843,4.20181219408311,-0.00375078166175502,1,12.2949652777778,29.9
4.76666666666667,11.7137637757436,37.7844060280595,4.19810709440397,-0.00370509967914412,1,12.2194444444444,29.9
4.8,11.71273873945,37.9242780555652,4.19444740791622,-0.00365968648774917,1,12.1421875,29.9
4.83333333333333,11.711708077619,38.0640287906165,4.19083196246983,-0.00361544544639258,1,12.0631944444444,29.9
4.86666666666667,11.7106717966669,38.2036596777365,4.18725885312495,-0.00357310934487476,1,11.9824652777778,29.9
4.9,11.7096299032186,38.3431720879113,4.18372558936397,-0.00353326376098106,1,11.9,29.9
4.93333333333333,11.7085823942968,38.482568710504,4.18044037587223,-0.00328521349174249,1,11.8157986111111,29.9
4.96666666666667,11.7075290456687,38.6218837290018,4.17929167756487,-0.00114869830736453,1,11.7298611111111,29.9
5,11.7064690393919,38.7612349143671,4.18297558423097,0.00368390666610185,1,11.6421875,29.9
5.03333333333333,11.7054010832031,38.900804329678,4.19236445483509,0.0093888706041243,1,11.5527777777778,29.9
5.06666666666667,11.7043238429167,39.0407751468127,4.20690647388539,0.0145420190503014,1,11.4616319444444,29.9
5.1,11.7032361498738,39.1813017217374,4.22552535251842,0.0186188786330312,4,11.36875,29.9
5.13333333333333,11.702137062649,39.322501174501,4.24709907396846,0.0215737214500393,4,11.2741319444444,29.9
5.16666666666667,11.7010258706961,39.464453769882,4.27053114876905,0.023432074800585,4,11.1777777777778,29.9
5.2,11.6999021107365,39.6072020401837,4.29464533668189,0.0241141879128417,4,11.0796875,29.9
