Time,x_ego,y_ego,velocity,acceleration,action,x_ped,y_ped
0,11.8,15.9,7,0,1,15.5,29.9
0.0333333333333333,11.7999991556326,16.133270379394,6.9961557798823,-0.00384422011770269,1,15.3694444444444,29.9
0.0666666666666667,11.7999938724217,16.3664065988009,6.99196947498367,-0.00418630489862348,1,15.2444444444444,29.9
0.1,11.799981290911,16.5994007551861,6.98769500047537,-0.00427447450830609,1,15.125,29.9
0.133333333333333,11.799959928311,16.8322537848708,6.98349768237817,-0.0041973180971997,1,15.0111111111111,29.9
0.166666666666667,11.7999292675115,17.064967878987,6.9793558991536,-0.00414178322456493,1,14.9027777777778,29.9
0.2,11.7998893888109,17.2975446157421,6.97525415530547,-0.00410174384813455,1,14.8,29.9
0.233333333333333,11.7998406878021,17.5299851341457,6.97118134647772,-0.00407280882774508,1,14.7027777777778,29.9
0.266666666666667,11.7997836887301,17.76229025851,6.96712951555286,-0.00405183092486805,1,14.6111111111111,29.9
0.3,11.7997189398368,17.9944605876619,6.9630929607827,-0.00403655477015707,1,14.525,29.9
0.333333333333333,11.7996469661865,18.2264965588621,6.95906759649829,-0.00402536428440392,1,14.4444444444444,29.9
0.366666666666667,11.7995682542707,18.4583984935997,6.95505049501719,-0.00401710148110634,1,14.3694444444444,29.9
0.4,11.7994832480002,18.6901666304015,6.95103955844974,-0.00401093656744589,1,14.3,29.9
0.433333333333333,11.7993923439172,18.9218011483377,6.94703328355868,-0.00400627489105787,1,14.2361111111111,29.9
0.466666666666667,11.7992958815275,19.1533021838602,6.94303059324841,-0.00400269031027456,1,14.1777777777778,29.9
0.5,11.7991941544805,19.3845830094238,6.93382081311601,-0.00920978013240248,1,14.125,29.9
0.533333333333333,11.7990874315001,19.6153839499807,6.91423777985299,-0.0195830332630189,3,14.0777777777778,29.9
0.566666666666667,11.7989759118107,19.8454457178362,6.88947070261083,-0.0247670772421609,3,14.0361111111111,29.9
0.6,11.7988597357302,20.0745090529491,6.85433220070944,-0.0351385019013897,3,14,29.9
0.633333333333333,11.7987389986059,20.3023143722881,6.81399009972001,-0.0403421009894229,3,13.9694444444444,29.9
0.666666666666667,11.798613730666,20.5287176677402,6.77021112556858,-0.0437789741514303,3,13.9444444444444,29.9
0.7,11.798483959566,20.7535753235687,6.72125218463752,-0.0489589409310627,3,13.925,29.9
0.733333333333333,11.7983497571008,20.9766856234508,6.66537037559895,-0.0558818090385724,3,13.9111111111111,29.9
0.766666666666667,11.7982112874641,21.197731716339,6.59740061762768,-0.067969757971273,3,13.9027777777778,29.9
0.8,11.7980688125284,21.416310336226,6.51732304468093,-0.0800775729467507,3,13.9,29.9
0.833333333333333,11.7979226754144,21.6319892175428,6.42341760562777,-0.0939054390531551,3,13.9,29.9
0.866666666666667,11.79777323916,21.844423002155,6.32261866332403,-0.100798942303737,3,13.9,29.9
0.9,11.797620843821,22.053410630873,6.21664984415075,-0.105968819173284,3,13.9,29.9
0.933333333333333,11.7974658340803,22.2588084941836,6.10723443140421,-0.10941541274654,3,13.9,29.9
0.966666666666667,11.797308577612,22.4604730169191,5.99265113717629,-0.114583294227919,3,13.9,29.9
1,11.7971495079611,22.658174185506,5.86943483770175,-0.123216299474544,3,13.9,29.9
1.03333333333333,11.7969890304912,22.8517397945539,5.74451883034427,-0.124916007357477,3,13.9,29.9
1.06666666666667,11.7968274595591,23.0411419048382,5.61962568654439,-0.124893143799876,3,13.9,29.9
1.1,11.7966650846326,23.226381291092,5.49475556298576,-0.12487012355863,3,13.9,29.9
1.13333333333333,11.7965021872787,23.4074587329194,5.3699085363025,-0.12484702668326,3,13.9,29.9
1.16666666666667,11.796339083804,23.5843172428949,5.2416186138118,-0.128289922490706,3,13.9,29.9
1.2,11.7961761296819,23.7568424350409,5.10990800113038,-0.131710612681421,3,13.9,29.9
1.23333333333333,11.7960137046725,23.9248908676515,4.97301141947354,-0.136896581656835,3,13.9,29.9
1.26666666666667,11.7958521936637,24.0883191131858,4.83269521306812,-0.140316206405419,3,13.9,29.9
1.3,11.7956919654296,24.2470128231484,4.68893801386853,-0.143757199199595,3,13.9,29.9
1.33333333333333,11.7955333710403,24.4008863627115,4.54348411329833,-0.145453900570198,3,13.9,29.9
1.36666666666667,11.7953767668096,24.5498531121448,4.39450315857199,-0.148980954726335,3,13.9,29.9
1.4,11.7952225142973,24.6938231740939,4.24369180384083,-0.150811354731165,3,13.9,29.9
1.43333333333333,11.7950709254174,24.8327650425684,4.09281817727737,-0.150873626563459,3,13.9,29.9
1.46666666666667,11.7949222828237,24.9666772169839,3.9419150578276,-0.150903119449765,3,13.9,29.9
1.5,11.7947768624382,25.0955591263829,3.79100583417543,-0.150909223652171,3,13.9,29.9
1.53333333333333,11.7946349318893,25.2194108627523,3.6401071768798,-0.150898657295631,3,13.9,29.9
1.56666666666667,11.7944967494123,25.3382329898858,3.48923094874533,-0.150876228134478,3,13.9,29.9
1.6,11.7943625631433,25.4520264063911,3.33838556897961,-0.150845379765718,3,13.9,29.9
1.63333333333333,11.7942325826656,25.5608209501406,3.18929912043163,-0.149086448547981,3,13.9,29.9
1.66666666666667,11.7941070056477,25.6646466210376,3.04025342610018,-0.149045694331446,3,13.9,29.9
1.7,11.793986045453,25.7635048273336,2.89125128252826,-0.149002143571924,3,13.9,29.9
1.73333333333333,11.79386990347,25.857397054221,2.74229459500514,-0.148956687523118,3,13.9,29.9
1.76666666666667,11.7937587693292,25.9463248387837,2.59338462725789,-0.148909967747247,3,13.9,29.9
1.8,11.7936528212169,26.0302897520479,2.44452218221122,-0.148862445046669,3,13.9,29.9
1.83333333333333,11.7935522251848,26.1092933861202,2.2957077330263,-0.148814449184922,3,13.8991319444444,29.9
1.86666666666667,11.7934571309602,26.183337835615,2.1470301538131,-0.148677579213198,3,13.8965277777778,29.9
1.9,11.7933676835948,26.2524142903909,1.99790937589284,-0.149120777920262,3,13.8921875,29.9
1.93333333333333,11.7932839655635,26.3165591853975,1.85123546273288,-0.146673913159957,3,13.8861111111111,29.9
1.96666666666667,11.7932059595124,26.3758893374826,1.70904234509572,-0.142193117637161,3,13.8782986111111,29.9
2,11.7931336609089,26.4304973473303,1.56790385923994,-0.141138485855784,3,13.86875,29.9
2.03333333333333,11.793067052712,26.4804757304359,1.43126117426718,-0.136642684972762,3,13.8574652777778,29.9
2.06666666666667,11.7930061075595,26.5259164288301,1.29563897930938,-0.135622194957798,3,13.8444444444444,29.9
2.1,11.7929507887843,26.566910355848,1.16444410149713,-0.131194877812246,3,13.8296875,29.9
2.13333333333333,11.7929010205288,26.6035754614871,1.03591090411339,-0.128533197383747,3,13.8131944444444,29.9
2.16666666666667,11.7928567492427,26.6360016429032,0.910133559184716,-0.12577734492867,3,13.7949652777778,29.9
2.2,11.7928179090715,26.6642827004648,0.787201541917963,-0.122932017266753,3,13.775,29.9
2.23333333333333,11.7927844273649,26.6885120201674,0.667005055944103,-0.12019648597386,3,13.7532986111111,29.9
2.26666666666667,11.7927562295006,26.7087788850956,0.549455440082153,-0.117549615861951,3,13.7298611111111,29.9
2.3,11.7927332355702,26.7251720237073,0.434592994661473,-0.11486244542068,3,13.7046875,29.9
2.33333333333333,11.7927153590818,26.7377813455976,0.322422183923238,-0.112170810738234,3,13.6777777777778,29.9
2.36666666666667,11.7927025107614,26.7466951875282,0.212857152267103,-0.109565031656135,3,13.6491319444444,29.9
2.4,11.7926946001739,26.7519995350535,0.105899497457494,-0.106957654809609,3,13.61875,29.9
2.43333333333333,11.792691529766,26.7537839729188,0.00320745074507982,-0.102692046712414,3,13.5866319444444,29.9
2.46666666666667,11.7926916177784,26.753527855325,0.00821365327586796,0.00500620253078814,5,13.5527777777778,29.9
2.5,11.7926925391709,26.7532717386796,0.00340721421448013,-0.00480643906138783,5,13.5171875,29.9
2.53333333333333,11.7926925391709,26.7532717386796,0.00424071433115931,0.000833500116679179,5,13.4798611111111,29.9
2.56666666666667,11.7926925391709,26.7532717386796,0.00533467780732759,0.00109396347616828,5,13.4407986111111,29.9
2.6,11.7926925391709,26.7532717386796,0.00657548460672486,0.00124080679939727,5,13.4,29.9
2.63333333333333,11.7926925391709,26.7532717386796,0.00782533111987579,0.00124984651315094,5,13.3574652777778,29.9
2.66666666666667,11.7926925391709,26.7532717386796,0.00894176948255671,0.00111643836268092,5,13.3131944444444,29.9
2.7,11.7926925391709,26.7532717386796,0.00979465408453887,0.00085288460198216,5,13.2671875,29.9
2.73333333333333,11.7926925391709,26.7532717386796,0.0102794344905306,0.000484780405991744,5,13.2194444444444,29.9
2.76666666666667,11.7926925391709,26.7532717386796,0.0103262075799667,4.67730894360713e-05,5,13.1699652777778,29.9
2.8,11.7926925391709,26.7532717386796,0.00990438179360959,-0.000421825786357102,5,13.11875,29.9
2.83333333333333,11.7926925391709,26.7532717386796,0.00902318566096398,-0.000881196132645602,5,13.0657986111111,29.9
2.86666666666667,11.7926925391709,26.7532717386796,0.00772855297541926,-0.00129463268554473,5,13.0111111111111,29.9
2.9,11.7926925391709,26.7532717386796,0.00609712857429849,-0.00163142440112077,5,12.9546875,29.9
2.93333333333333,11.7926925391709,26.7532717386796,0.00422826016137704,-0.00186886841292146,5,12.8965277777778,29.9
2.96666666666667,11.7926925391709,26.7532717386796,0.00223487826027182,-0.00199338190110522,5,12.8366319444444,29.9
3,11.7926925391709,26.7532717386796,0.000234128788195865,-0.00200074947207595,5,12.775,29.9
3.03333333333333,11.7926925391709,26.7532717386796,0.00166147484319602,0.00142734605500015,5,12.7116319444444,29.9
3.06666666666667,11.7926925391709,26.7532717386796,0.00335175441454064,0.00169027957134462,5,12.6465277777778,29.9
3.1,11.7926925391709,26.7532717386796,0.00475496661364153,0.00140321219910089,5,12.5796875,29.9
3.13333333333333,11.7926925391709,26.7532717386796,0.00581202041698214,0.00105705380334061,5,12.5111111111111,29.9
3.16666666666667,11.7926925391709,26.7532717386796,0.00648870715002344,0.000676686733041296,5,12.4407986111111,29.9
3.2,11.7926925391709,26.7532717386796,0.00677599657632561,0.000287289426302174,5,12.36875,29.9
3.23333333333333,11.7926925391709,26.7532717386796,0.0066885855986929,-8.74109776327122e-05,5,12.2949652777778,29.9
3.26666666666667,11.7926925391709,26.7532717386796,0.00626198833933009,-0.000426597259362808,5,12.2194444444444,29.9
3.3,11.7926925391709,26.7532717386796,0.00554852461770734,-0.000713463721622748,5,12.1421875,29.9
3.33333333333333,11.7926925391709,26.7532717386796,0.00461259807999217,-0.000935926537715173,5,12.0631944444444,29.9
3.36666666666667,11.7926925391709,26.7532717386796,0.00352565775110796,-0.00108694032888421,5,11.9824652777778,29.9
3.4,11.7926925391709,26.7532717386796,0.00236121174666728,-0.00116444600444068,5,11.9,29.9
3.43333333333333,11.7926925391709,26.7532717386796,0.00119021476883817,-0.00117099697782911,5,11.8157986111111,29.9
3.46666666666667,11.7926925391709,26.7532717386796,7.70880270614125e-05,-0.00111312674177676,5,11.7298611111111,29.9
3.5,11.7926925391709,26.7532717386796,0.000923442212624124,0.000846354185562712,5,11.6421875,29.9
3.53333333333333,11.7926925391709,26.7532717386796,0.00176857698001726,0.000845134767393139,5,11.5527777777778,29.9
3.56666666666667,11.7926925391709,26.7532717386796,0.00242871089652464,0.000660133916507378,5,11.4616319444444,29.9
3.6,11.7926925391709,26.7532717386796,0.00288776214053723,0.000459051244012586,5,11.36875,29.9
3.63333333333333,11.7926925391709,26.7532717386796,0.00314265215601646,0.000254890015479228,5,11.2741319444444,29.9
3.66666666666667,11.7926925391709,26.7532717386796,0.00320206484719303,5.94126911765795e-05,5,11.1777777777778,29.9
3.7,11.7926925391709,26.7532717386796,0.00308464481141466,-0.000117420035778372,5,11.0796875,29.9
3.73333333333333,11.7926925391709,26.7532717386796,0.00281681000088457,-0.000267834810530097,5,10.9798611111111,29.9
3.76666666666667,11.7926925391709,26.7532717386796,0.00243035688924355,-0.00038645311164102,5,10.8782986111111,29.9
3.8,11.7926925391709,26.7532717386796,0.00196002731026557,-0.00047032957897798,5,10.775,29.9
3.83333333333333,11.7926925391709,26.7532717386796,0.00144118772929977,-0.000518839580965801,5,10.6699652777778,29.9
3.86666666666667,11.7926925391709,26.7532717386796,0.000907746224365063,-0.000533441504934703,5,10.5631944444444,29.9
3.9,11.7926925391709,26.7532717386796,0.000390402436816101,-0.000517343787548962,5,10.4546875,29.9
3.93333333333333,11.7926925391709,26.7532717386796,8.47063127458356e-05,-0.000305696124070266,5,10.3444444444444,29.9
3.96666666666667,11.7926925391709,26.7532717386796,0.000496931382004187,0.000412225069258351,5,10.2324652777778,29.9
4,11.7926925391709,26.7532717386796,0.000831609928695873,0.000334678546691686,5,10.11875,29.9
4.03333333333333,11.7926925391709,26.7532717386796,0.00108015700816425,0.000248547079468374,5,10.0032986111111,29.9
4.06666666666667,11.7926925391709,26.7532717386796,0.00123979794333029,0.000159640935166046,5,9.88611111111111,29.9
4.1,11.7926925391709,26.7532717386796,0.00131300186095077,7.32039176204735e-05,5,9.7671875,29.9
4.13333333333333,11.7926925391709,26.7532717386796,0.00130668717500506,-6.31468594570702e-06,5,9.64652777777778,29.9
4.16666666666667,11.7926925391709,26.7532717386796,0.00123127413588102,-7.54130391240346e-05,5,9.52413194444444,29.9
4.2,11.7926925391709,26.7532717386796,0.00100104640465609,-0.000230227731224932,5,9.4,29.9
4.23333333333333,11.7926920885109,26.7536678278114,0.0203057532287529,0.0193047068240969,4,9.27413194444444,29.9
4.26666666666667,11.7926907395969,26.7548533878318,0.0507859392494701,0.0304801860207172,4,9.14652777777778,29.9
4.3,11.792688043993,26.7572218978357,0.0912370754939881,0.0404511362445179,4,9.0171875,29.9
4.33333333333333,11.7926836259178,26.761101619512,0.141421989950667,0.0501849144566787,4,8.88611111111111,29.9
4.36666666666667,11.7926773130391,26.7666393343397,0.190689860052836,0.0492678701021692,4,8.75329861111111,29.9
4.4,11.7926691339813,26.7738011349213,0.238854363476021,0.0481645034231847,4,8.61875,29.9
4.43333333333333,11.7926591166999,26.7825485921117,0.285844598887578,0.046990235411557,4,8.48246527777778,29.9
4.46666666666667,11.7926472823845,26.7928433411882,0.331710093910432,0.0458654950228542,4,8.34444444444444,29.9
4.5,11.7926336429758,26.8046487928698,0.37649902020526,0.0447889262948281,4,8.2046875,29.9
4.53333333333333,11.792618201364,26.8179298204132,0.420250608945161,0.043751588739901,4,8.06319444444444,29.9
4.56666666666667,11.7926009519519,26.8326524895944,0.462997594461126,0.0427469855159651,4,7.91996527777778,29.9
4.6,11.7925818817223,26.8487837250619,0.504755351045501,0.041757756584375,4,7.775,29.9
4.63333333333333,11.7925609722878,26.8662904929359,0.545518039716326,0.0407626886708243,4,7.62829861111111,29.9
4.66666666666667,11.7925382016249,26.8851396220678,0.585286605382644,0.0397685656663187,4,7.47986111111111,29.9
4.7,11.7925135456697,26.9052980620523,0.624068688321401,0.0387820829387565,4,7.3296875,29.9
4.73333333333333,11.7924869802661,26.9267330773588,0.661876499851955,0.0378078115305543,4,7.17777777777778,29.9
4.76666666666667,11.7924584833455,26.9494123929746,0.698727380288555,0.0368508804365996,4,7.02413194444444,29.9
4.8,11.792428036675,26.9733047639488,0.734670729290521,0.0359433490019659,4,6.86875,29.9
4.83333333333333,11.7923956270169,26.9983809835089,0.76977002162583,0.0350992923353097,4,6.71163194444444,29.9
4.86666666666667,11.7923612483307,27.024613780974,0.804076801143389,0.0343067795175586,4,6.55277777777778,29.9
4.9,11.7923249039246,27.0519774542592,0.837633009359531,0.0335562082161422,4,6.3921875,29.9
4.93333333333333,11.7922866080405,27.0804475919818,0.870473520761192,0.0328405114016611,4,6.22986111111111,29.9
4.96666666666667,11.7922463868029,27.110000865377,0.902627991573937,0.0321544708127445,4,6.06579861111111,29.9
5,11.7922042786027,27.1406147716396,0.934110314795777,0.03148232322184,4,5.9,29.9
5.03333333333333,11.7921603348578,27.1722664937679,0.964890375534056,0.0307800607382795,4,5.9,29.9
5.06666666666667,11.7921146196562,27.2049321771159,0.994943211095843,0.0300528355617871,4,5.9,29.9
5.1,11.7920672074259,27.2385873855552,1.02425809026,0.0293148791641521,4,5.9,29.9
5.13333333333333,11.792018179961,27.2732076457234,1.05285813375997,0.0286000434999782,4,5.9,29.9
5.16666666666667,11.7919676192427,27.3087721730932,1.08097323070823,0.0281150969482591,4,5.9,29.9
5.2,11.791915594513,27.3452721093394,1.10907219733129,0.0280989666230613,4,5.9,29.9
5.23333333333333,11.7918621515055,27.3827166150398,1.13775170500789,0.028679507676594,4,5.9,29.9
5.26666666666667,11.7918073051906,27.4211358130472,1.16766373720059,0.0299120321927027,4,5.9,29.9
5.3,11.7917510346887,27.4605818806495,1.19947556488855,0.031811827687964,4,5.9,29.9
5.33333333333333,11.791693279203,27.5011294047727,1.23386573100506,0.0343901661165009,4,5.9,29.9
5.36666666666667,11.7916339342304,27.542875750198,1.27151873308497,0.037653002079918,4,5.9,29.9
5.4,11.7915728488692,27.585940882488,1.31310262625456,0.0415838931695878,4,5.9,29.9
5.43333333333333,11.7915098246605,27.6304664070864,1.35923778836506,0.0461351621105006,4,5.9,29.9
5.46666666666667,11.7914446174273,27.6766127551683,1.41042893204053,0.0511911436754662,4,5.9,29.9
5.5,11.791376940635,27.7245558584354,1.4671119701026,0.0566830380620678,4,5.9,29.9
5.53333333333333,11.7913064684145,27.7744849322515,1.52963023854138,0.0625182684387817,4,5.9,29.9
5.56666666666667,11.7912328433422,27.8265972989905,1.59810931021743,0.0684790716760517,4,5.9,29.9
5.6,11.7911556894344,27.8810899873915,1.67240429280801,0.074294982590581,4,5.9,29.9
5.63333333333333,11.7910746264546,27.9381513147721,1.75215592426632,0.0797516314583129,4,5.9,29.9
5.66666666666667,11.7909892821055,27.9979551262656,1.83685961563808,0.0847036913717529,4,5.9,29.9
5.7,11.79089930326,28.0606565219073,1.92590376613036,0.089044150492279,4,5.9,29.9
5.73333333333333,11.7908043656515,28.1263891594727,2.01862190125144,0.0927181351210886,4,5.9,29.9
5.76666666666667,11.7907041812978,28.1952642152067,2.11433793884144,0.095716037589995,4,5.9,29.9
5.8,11.7905985034311,28.2673706281012,2.21239762109229,0.0980596822508497,4,5.9,29.9
5.83333333333333,11.7904871288889,28.3427761409172,2.31218615872665,0.0997885376343643,4,5.9,29.9
5.86666666666667,11.790369896991,28.4215294971151,2.41320156944112,0.101015410714467,4,5.9,29.9
5.9,11.7902466822871,28.5036655777028,2.51509633282002,0.101894763378897,4,5.9,29.9
5.93333333333333,11.7901177118227,28.5892086450658,2.61757402733211,0.102477694512096,4,5.9,29.9
5.96666666666667,11.7899844371453,28.678173757989,2.72037881835314,0.102804791021025,4,5.9,29.9
6,11.7898483229381,28.7705681469396,2.82329733640935,0.102918518056217,4,5.9,29.9
6.03333333333333,11.7897103956173,28.8663926093898,2.926156108614,0.10285877220465,4,5.9,29.9
6.06666666666667,11.7895712258522,28.9656427009291,3.02880745111635,0.102651342502346,4,5.9,29.9
6.1,11.7894310094875,29.0683084280018,3.13106065645335,0.102253205337003,4,5.9,29.9
6.13333333333333,11.7892895754973,29.174373694106,3.23275985606787,0.101699199614512,4,5.9,29.9
6.16666666666667,11.7891464628448,29.28381844313,3.33382029975416,0.10106044368629,4,5.9,29.9
6.2,11.7890010290778,29.3966207192708,3.43420953481919,0.10038923506503,4,5.9,29.9
6.23333333333333,11.7888525558023,29.5127580751377,3.53392719439524,0.0997176595760503,4,5.9,29.9
6.26666666666667,11.7887003399992,29.6322083848387,3.63299112267067,0.09906392827543,4,5.9,29.9
6.3,11.7885437648362,29.7549502286692,3.7314234450621,0.0984323223914374,4,5.9,29.9
6.33333333333333,11.7883823483567,29.8809624492414,3.82919930689129,0.0977758618291822,4,5.9,29.9
6.36666666666667,11.7882157724354,30.0102215547954,3.92622422180001,0.0970249149087219,4,5.9,29.9
6.4,11.7880438883685,30.1427014785677,4.02244207833677,0.0962178565367586,4,5.9,29.9
6.43333333333333,11.7878667036358,30.2783747811525,4.1178235461562,0.095381467819438,4,5.9,29.9
6.46666666666667,11.7876843563351,30.4172132865023,4.21235211324598,0.09452856708978,4,5.9,29.9
6.5,11.7874970811773,30.5591883731595,4.30601676914068,0.0936646558947007,4,5.9,29.9
6.53333333333333,11.7873051712317,30.7042710918361,4.39880844244738,0.0927916733066976,4,5.9,29.9
