Time,x_ego,y_ego,velocity,acceleration,action,x_ped,y_ped
0,11.8,8.9,5,0,1,15.5,29.9
0.0333333333333333,11.7999981770061,9.06660768884077,4.996422616795,-0.00357738320500367,1,15.3694444444444,29.9
0.0666666666666667,11.7999864819774,9.23309265306372,4.9926475968178,-0.00377501997719332,1,15.2444444444444,29.9
0.1,11.7999579602209,9.39944929644488,4.98873140887029,-0.00391618794751469,1,15.125,29.9
0.133333333333333,11.7999086047797,9.56567362229928,4.9847145120161,-0.00401689685419271,1,15.0111111111111,29.9
0.166666666666667,11.7998368468247,9.73176278013155,4.98062588183446,-0.00408863018163252,1,14.9027777777778,29.9
0.2,11.7997429301721,9.8977147409703,4.97648626896053,-0.00413961287393683,1,14.8,29.9
0.233333333333333,11.7996283007177,10.0635280649054,4.9723105393686,-0.00417572959192292,1,14.7027777777778,29.9
0.266666666666667,11.7994950889468,10.2292017345908,4.96810934985849,-0.00420118951011084,1,14.6111111111111,29.9
0.3,11.7993457155813,10.3947350358997,4.96389034473322,-0.00421900512526818,1,14.525,29.9
0.333333333333333,11.7991826151809,10.560127472293,4.95965900993151,-0.00423133480171689,1,14.4444444444444,29.9
0.366666666666667,11.79900805331,10.7253787033166,4.95541928330258,-0.00423972662893046,1,14.3694444444444,29.9
0.4,11.7988240083287,10.8904885004014,4.95117399149449,-0.00424529180808708,1,14.3,29.9
0.433333333333333,11.7986320945648,11.0554567150895,4.94692516328339,-0.00424882821110373,1,14.2361111111111,29.9
0.466666666666667,11.7984335139635,11.2202832562,4.9426742545044,-0.00425090877898615,1,14.1777777777778,29.9
0.5,11.7982290331968,11.3849680734342,4.93842230952836,-0.00425194497603609,1,14.125,29.9
0.533333333333333,11.7980189892118,11.5495111456233,4.93417007713696,-0.0042522323913996,1,14.0777777777778,29.9
0.566666666666667,11.7978033270514,11.7139124723244,4.9299180936626,-0.00425198347436329,1,14.0361111111111,29.9
0.6,11.797581090873,11.8781720673409,4.9256667683152,-0.00425132534740413,1,14,29.9
0.633333333333333,11.7973491186117,12.0422899530607,4.92141638783905,-0.00425038047614823,1,13.9694444444444,29.9
0.666666666666667,11.7971038689711,12.2062661585762,4.91716716166274,-0.00424922617630763,1,13.9444444444444,29.9
0.7,11.7968406529528,12.3701007165462,4.91291923813062,-0.00424792353211689,1,13.925,29.9
0.733333333333333,11.7965560139817,12.5337936637336,4.90867269091501,-0.00424654721561524,1,13.9111111111111,29.9
0.766666666666667,11.79624764686,12.6973450400177,4.90442760014437,-0.00424509077064172,1,13.9027777777778,29.9
0.8,11.7959126737367,12.8607548857279,4.90018401791949,-0.00424358222488141,1,13.9,29.9
0.833333333333333,11.7955495828306,13.0240232433261,4.8959419364767,-0.00424208144278282,1,13.9,29.9
0.866666666666667,11.7951584586895,13.1871501578658,4.89170133939383,-0.00424059708287139,1,13.9,29.9
0.9,11.7947405121529,13.3501356767773,4.88746221263878,-0.00423912675505544,1,13.9,29.9
0.933333333333333,11.7942976347777,13.5129798495961,4.88322455133603,-0.00423766130274306,1,13.9,29.9
0.966666666666667,11.7938320205135,13.6756827275993,4.87898836139163,-0.00423618994439945,1,13.9,29.9
1,11.7933458732329,13.8382443633606,4.87475365735596,-0.00423470403567006,1,13.9,29.9
1.03333333333333,11.7928412009417,14.0006648102603,4.870520458618,-0.00423319873796224,1,13.9,29.9
1.06666666666667,11.7923196868669,14.1629441220044,4.86628878565309,-0.00423167296490945,1,13.9,29.9
1.1,11.7917826232284,14.3250823521989,4.86205865725752,-0.00423012839556858,1,13.9,29.9
1.13333333333333,11.7912308934369,14.4870795540158,4.85783008899116,-0.00422856826636675,1,13.9,29.9
1.16666666666667,11.7906649906019,14.6489357799676,4.85360309262247,-0.00422699636868806,1,13.9,29.9
1.2,11.7900850627705,14.8106510817947,4.8493776762219,-0.00422541640057084,1,13.9,29.9
1.23333333333333,11.7894909771478,14.9722255104585,4.84515384457878,-0.00422383164311846,1,13.9,29.9
1.26666666666667,11.7888823963246,15.133659116224,4.84093159972036,-0.00422224485842371,1,13.9,29.9
1.3,11.7882588595025,15.2949519488115,4.8367109414197,-0.0042206583006541,1,13.9,29.9
1.33333333333333,11.787619861472,15.4561040575897,4.83249186766107,-0.00421907375863295,1,13.9,29.9
1.36666666666667,11.7869649222901,15.6171154917836,4.82827437507796,-0.00421749258310999,1,13.9,29.9
1.4,11.786293641638,15.7779863006684,4.82405845939325,-0.00421591568471147,1,13.9,29.9
1.43333333333333,11.7856057338204,15.9387165337264,4.8198441158787,-0.00421434351454764,1,13.9,29.9
1.46666666666667,11.7849010420278,16.0993062407491,4.81563133982339,-0.00421277605530701,1,13.9,29.9
1.5,11.784179533355,16.259755471878,4.81142012697081,-0.00421121285258153,1,13.9,29.9
1.53333333333333,11.7834412785721,16.420064277587,4.80721047386683,-0.00420965310397747,1,13.9,29.9
1.56666666666667,11.782686422319,16.5802327086178,4.80300237806457,-0.00420809580226322,1,13.9,29.9
1.6,11.7819151499506,16.7402608158865,4.79879583815715,-0.00420653990742093,1,13.9,29.9
1.63333333333333,11.7811276567037,16.9001486503819,4.7945908536466,-0.00420498451054474,1,13.9,29.9
1.66666666666667,11.7803241234016,17.0598962630733,4.79038742469211,-0.004203428954491,1,13.9,29.9
1.7,11.7795047009673,17.2195037048412,4.78618555180209,-0.00420187289002083,1,13.9,29.9
1.73333333333333,11.7786695040138,17.3789710264374,4.78198523553684,-0.00420031626525041,1,13.9,29.9
1.76666666666667,11.7778186121285,17.5382982784739,4.77778647627416,-0.00419875926268709,1,13.9,29.9
1.8,11.7769520764259,17.6974855114351,4.77358927406669,-0.00419720220746811,1,13.9,29.9
1.83333333333333,11.7760699302238,17.8565324123865,4.76937182971051,-0.00421744435617466,1,13.8991319444444,29.9
1.86666666666667,11.77517232799,18.0154099662544,4.76343383283538,-0.00593799687513119,1,13.8965277777778,29.9
1.9,11.7742595627547,18.1740604610654,4.75575374887123,-0.00768008396414821,1,13.8921875,29.9
1.93333333333333,11.7733319500163,18.3324261956765,4.7463537491703,-0.00939999970093019,1,13.8861111111111,29.9
1.96666666666667,11.7723899748307,18.4904207806906,4.73349036814372,-0.0128633810265848,1,13.8782986111111,29.9
2,11.77143430702,18.647928782504,4.71716437120838,-0.0163259969353362,1,13.86875,29.9
2.03333333333333,11.7704655228034,18.8048638612063,4.69912057970076,-0.0180437915076173,3,13.8574652777778,29.9
2.06666666666667,11.7694840989134,18.9611687694281,4.67935974050046,-0.0197608392003001,3,13.8444444444444,29.9
2.1,11.7684904000456,19.1168149863178,4.65960467912608,-0.0197550613743855,3,13.8296875,29.9
2.13333333333333,11.7674852888803,19.2716871766419,4.63292377095383,-0.0266809081722466,3,13.8131944444444,29.9
2.16666666666667,11.7664704595965,19.4255261644817,4.5976180552618,-0.035305715692032,3,13.7949652777778,29.9
2.2,11.765447375703,19.5781305975736,4.55885581416983,-0.038762241091967,3,13.775,29.9
2.23333333333333,11.7644169434825,19.7294139874546,4.51836065729427,-0.0404951568755614,3,13.7532986111111,29.9
2.26666666666667,11.7633801309918,19.879290252857,4.47443342666181,-0.0439272306324607,3,13.7298611111111,29.9
2.3,11.7623377863802,20.0277024190413,4.43051959765312,-0.0439138290086891,3,13.7046875,29.9
2.33333333333333,11.7612906271138,20.1746218818995,4.38487596803345,-0.0456436296196721,3,13.6777777777778,29.9
2.36666666666667,11.7602395592852,20.3199913611471,4.33752508603365,-0.0473508819998028,3,13.6491319444444,29.9
2.4,11.7591856784273,20.4637248994674,4.28672373229456,-0.0508013537390868,3,13.61875,29.9
2.43333333333333,11.7581299104717,20.6057652697755,4.23593885559008,-0.0507848767044763,3,13.5866319444444,29.9
2.46666666666667,11.7570731853594,20.7460556309734,4.18172671307632,-0.0542121425137623,3,13.5527777777778,29.9
2.5,11.7560168046213,20.8844813985578,4.1240663544765,-0.0576603585998177,3,13.5171875,29.9
2.53333333333333,11.754961899104,21.0209567199165,4.06470264912163,-0.059363705354877,3,13.4798611111111,29.9
2.56666666666667,11.7539096189407,21.155395770243,4.00189244919376,-0.0628101999278705,3,13.4407986111111,29.9
2.6,11.7528613316728,21.2876836886573,3.93563671561858,-0.066255733575177,3,13.4,29.9
2.63333333333333,11.7518182413848,21.4177347122162,3.86768038417782,-0.0679563314407576,3,13.3574652777778,29.9
2.66666666666667,11.7507811862542,21.5455208746759,3.79974638126229,-0.067934002915532,3,13.3131944444444,29.9
2.7,11.7497508221165,21.6710429324629,3.73183519000024,-0.0679111912620511,3,13.2671875,29.9
2.73333333333333,11.74872780795,21.7943016553903,3.66394713363878,-0.0678880563614639,3,13.2194444444444,29.9
2.76666666666667,11.7477130057788,21.915268756948,3.5943384966434,-0.0696086369953761,3,13.1699652777778,29.9
2.8,11.7467072695497,22.0339159607857,3.52475356744049,-0.0695849292029056,3,13.11875,29.9
2.83333333333333,11.7457114418814,22.1502153622998,3.45347038987747,-0.0712831775630254,3,13.0657986111111,29.9
2.86666666666667,11.7447263513185,22.2641390658305,3.38221142015572,-0.0712589697217449,3,13.0111111111111,29.9
2.9,11.7437528149773,22.3756591832439,3.30925467764492,-0.0729567425108075,3,12.9546875,29.9
2.93333333333333,11.7427920760739,22.484690067691,3.23285653864505,-0.076398138999866,3,12.8965277777778,29.9
2.96666666666667,11.7418453829404,22.5911460880488,3.15476151710909,-0.0780950215359577,3,12.8366319444444,29.9
3,11.7409137783791,22.6949703329379,3.07494831171873,-0.0798132053903662,3,12.775,29.9
3.03333333333333,11.739998095998,22.7961346096413,2.99516135189439,-0.0797869598243306,3,12.7116319444444,29.9
3.06666666666667,11.7390989515112,22.8946398030307,2.91540091266522,-0.0797604392291702,3,12.6465277777778,29.9
3.1,11.7382171894246,22.9904581035064,2.83394502796288,-0.0814558847023457,3,12.5796875,29.9
3.13333333333333,11.7373538843443,23.0835330080207,2.75079400344042,-0.0831510245224587,3,12.5111111111111,29.9
3.16666666666667,11.736509882576,23.1738367262933,2.66767032696963,-0.0831236764707874,3,12.4407986111111,29.9
3.2,11.7356857930709,23.2613701780315,2.58457416913386,-0.0830961578357754,3,12.36875,29.9
3.23333333333333,11.7348822087762,23.3461342871419,2.50150561823614,-0.0830685508977189,3,12.2949652777778,29.9
3.26666666666667,11.7340996995229,23.4281299794085,2.41846470320883,-0.0830409150273117,3,12.2194444444444,29.9
3.3,11.7333388041432,23.5073581808027,2.33545141107074,-0.0830132921380891,3,12.1421875,29.9
3.33333333333333,11.7326000242526,23.5838198162636,2.25246570003315,-0.0829857110375891,3,12.0631944444444,29.9
3.36666666666667,11.7318838119938,23.6575171218026,2.16965468581394,-0.0828110142192084,3,11.9824652777778,29.9
3.4,11.7311904612334,23.7284666162197,2.08775381228676,-0.0819008735271822,3,11.9,29.9
3.43333333333333,11.7305199865488,23.796713284411,2.00756062411888,-0.0801931881678821,3,11.8157986111111,29.9
3.46666666666667,11.7298722144338,23.8623195874768,1.92934462528323,-0.0782159988356461,3,11.7298611111111,29.9
3.5,11.7292468982625,23.9253519261705,1.85310703721622,-0.0762375880670059,3,11.6421875,29.9
3.53333333333333,11.7286437667062,23.9858751838308,1.77878017212093,-0.0743268650952906,3,11.5527777777778,29.9
3.56666666666667,11.7280625397155,24.0439512219488,1.70624265696499,-0.0725375151559415,3,11.4616319444444,29.9
3.6,11.7275029448084,24.0996374485297,1.63536977762757,-0.0708728793374247,3,11.36875,29.9
3.63333333333333,11.7269647106727,24.1529880334559,1.56609066520764,-0.0692791124199319,3,11.2741319444444,29.9
3.66666666666667,11.7264475593118,24.2040552656086,1.49835035687998,-0.0677403083276522,3,11.1777777777778,29.9
3.7,11.7259512133971,24.2528891360219,1.43207300281401,-0.0662773540659742,3,11.0796875,29.9
3.73333333333333,11.725475397961,24.2995375151396,1.36720968924397,-0.0648633135700418,3,10.9798611111111,29.9
3.76666666666667,11.7250198354261,24.3440470226283,1.3037294865583,-0.0634802026856707,3,10.8782986111111,29.9
3.8,11.7245842485426,24.3864629479507,1.24157966114524,-0.0621498254130581,3,10.775,29.9
3.83333333333333,11.7241683665529,24.426828761537,1.18071103105498,-0.0608686300902599,3,10.6699652777778,29.9
3.86666666666667,11.7237719222061,24.4651866041756,1.12109195141837,-0.0596190796366076,3,10.5631944444444,29.9
3.9,11.7233946466703,24.5015779631281,1.06272216539109,-0.0583697860272763,3,10.4546875,29.9
3.93333333333333,11.7230362560019,24.5360452320225,1.00564913009148,-0.0570730352996123,3,10.3444444444444,29.9
3.96666666666667,11.7226964453434,24.568632368677,0.949914013834116,-0.0557351162573662,3,10.2324652777778,29.9
4,11.7223748931253,24.5993844187993,0.895541228425047,-0.0543727854090688,3,10.11875,29.9
4.03333333333333,11.7220712678309,24.6283467456599,0.842513123691773,-0.0530281047332745,3,10.0032986111111,29.9
4.06666666666667,11.7217852489964,24.6555627098688,0.790738227642022,-0.0517748960497509,3,9.88611111111111,29.9
4.1,11.7215165363178,24.6810726690019,0.740135300256228,-0.0506029273857936,3,9.7671875,29.9
4.13333333333333,11.7212648439863,24.7049146021812,0.69064191878501,-0.0494933814712177,3,9.64652777777778,29.9
4.16666666666667,11.7210298956553,24.7271246718703,0.642213933274406,-0.048427985510604,3,9.52413194444444,29.9
4.2,11.7208114137466,24.7477384009608,0.594861292867524,-0.0473526404068819,3,9.4,29.9
4.23333333333333,11.7206091068436,24.7667920532055,0.548606578739823,-0.0462547141277019,3,9.27413194444444,29.9
4.26666666666667,11.7204226719989,24.7843223996109,0.503458363204201,-0.045148215535622,3,9.14652777777778,29.9
4.3,11.7202517986271,24.8003663197108,0.459415127987838,-0.0440432352163631,3,9.0171875,29.9
4.33333333333333,11.7200961716935,24.8149604870725,0.416464104779498,-0.0429510232083395,3,8.88611111111111,29.9
4.36666666666667,11.7199554785234,24.8281406753638,0.37456306655709,-0.0419010382224085,3,8.75329861111111,29.9
4.4,11.7198294157443,24.8399410614842,0.333663870912178,-0.0408991956449113,3,8.61875,29.9
4.43333333333333,11.7197176889183,24.8503943230174,0.293724487379691,-0.0399393835324875,3,8.48246527777778,29.9
4.46666666666667,11.7196197432991,24.8595605051523,0.25642801250306,-0.0372964748766305,3,8.34444444444444,29.9
4.5,11.719534763853,24.8675269917843,0.221731107660379,-0.0346969048426817,3,8.2046875,29.9
4.53333333333333,11.7194616704014,24.8744089577911,0.191355306651834,-0.0303758010085446,3,8.06319444444444,29.9
4.56666666666667,11.7193993761173,24.8803217236111,0.163579200521194,-0.0277761061306397,3,7.91996527777778,29.9
4.6,11.7193467844297,24.8853810959848,0.140146644301057,-0.0234325562201372,3,7.775,29.9
4.63333333333333,11.7193025278182,24.8897313129196,0.121020767816742,-0.0191258764843152,3,7.62829861111111,29.9
4.66666666666667,11.7192652539189,24.8935145081093,0.10611454951183,-0.0149062183049122,5,7.47986111111111,29.9
4.7,11.7192328201851,24.8969566774715,0.100544330808268,-0.00557021870356143,5,7.3296875,29.9
4.73333333333333,11.7192023018431,24.9003667034228,0.104165257088781,0.00362092628051275,5,7.17777777777778,29.9
4.76666666666667,11.7191708177091,24.904047901492,0.116790002189871,0.0126247451010899,5,7.02413194444444,29.9
4.8,11.7191352678082,24.9083255285794,0.139921884461473,0.0231318822716019,4,6.86875,29.9
4.83333333333333,11.7190926040631,24.9135170642471,0.171592520807781,0.031670636346308,4,6.71163194444444,29.9
4.86666666666667,11.7190398257347,24.9199315443883,0.21326467371086,0.0416721529030797,4,6.55277777777778,29.9
4.9,11.7189745049646,24.9278118421486,0.259516283933479,0.046251610222619,4,6.3921875,29.9
4.93333333333333,11.7188958325541,24.9372211758663,0.305007693579637,0.0454914096461572,4,6.22986111111111,29.9
4.96666666666667,11.7188037632058,24.9481333035518,0.349687132673293,0.0446794390936566,4,6.06579861111111,29.9
5,11.7186981881646,24.960520595683,0.393520266037867,0.0438331333645738,4,5.9,29.9
5.03333333333333,11.7185789318466,24.9743545286711,0.436485771458773,0.0429655054209056,4,5.9,29.9
5.06666666666667,11.7184457542827,24.9896060408492,0.478570452249096,0.0420846807903237,4,5.9,29.9
5.1,11.7182983623116,25.0062454462233,0.519747075187214,0.041176622938118,4,5.9,29.9
5.13333333333333,11.7181364281409,25.0242420372228,0.559988828033317,0.0402417528461022,4,5.9,29.9
5.16666666666667,11.7179596050704,25.0435644255987,0.599283139407633,0.0392943113743166,4,5.9,29.9
5.2,11.7177675458765,25.0641809510572,0.63762783146151,0.0383446920538768,4,5.9,29.9
5.23333333333333,11.7175599244945,25.0860599772938,0.675027978490581,0.0374001470290714,4,5.9,29.9
5.26666666666667,11.7173364588242,25.1091701732132,0.711502113456591,0.0364741349660095,4,5.9,29.9
5.3,11.7170969269126,25.133481458643,0.747106251061612,0.035604137605021,4,5.9,29.9
5.33333333333333,11.7168411832225,25.1589657315389,0.781896476678803,0.0347902256171916,4,5.9,29.9
5.36666666666667,11.7165691809169,25.1855965860867,0.81591791732265,0.0340214406438463,4,5.9,29.9
5.4,11.7162809897581,25.2133490039274,0.849207617738219,0.0332897004155698,4,5.9,29.9
5.43333333333333,11.7159768076109,25.2421991235927,0.88179669370435,0.0325890759661309,4,5.9,29.9
5.46666666666667,11.7156569650207,25.2721240634048,0.913711215687737,0.0319145219833863,4,5.9,29.9
5.5,11.7153219254997,25.3031014731051,0.944948125906475,0.031236910218738,4,5.9,29.9
5.53333333333333,11.7149723328184,25.3351082219859,0.975472998342085,0.0305248724356104,4,5.9,29.9
5.56666666666667,11.7146091312748,25.3681202475279,1.00526623592784,0.0297932375857565,4,5.9,29.9
5.6,11.7142333932888,25.4021130450332,1.03432008635834,0.0290538504304987,4,5.9,29.9
5.63333333333333,11.7138462309852,25.437061975381,1.06263494458596,0.0283148582276149,4,5.9,29.9
5.66666666666667,11.7134487511067,25.4729425325892,1.09021876837638,0.0275838237904282,4,5.9,29.9
5.7,11.7130420102777,25.5097305584257,1.11708473460785,0.0268659662314663,4,5.9,29.9
5.73333333333333,11.7126269730354,25.5474023917576,1.14325046292128,0.0261657283134327,4,5.9,29.9
5.76666666666667,11.7122044717088,25.5859352768939,1.16876096163643,0.0255104987151451,4,5.9,29.9
5.8,11.7117751532775,25.6253097680489,1.19379831089373,0.0250373492573011,4,5.9,29.9
5.83333333333333,11.7113393929346,25.6655163546878,1.21877186201864,0.0249735511249112,4,5.9,29.9
5.86666666666667,11.710897216912,25.7065619802775,1.24424476068339,0.0254728986647539,4,5.9,29.9
5.9,11.7104482586678,25.7484740235261,1.27087746190736,0.0266327012239662,4,5.9,29.9
5.93333333333333,11.709991729611,25.791303692484,1.29944148565313,0.0285640237457685,4,5.9,29.9
5.96666666666667,11.7095263997232,25.8351292577665,1.33077452304078,0.0313330373876548,4,5.9,29.9
6,11.7090506092463,25.8800568732843,1.36569978774605,0.0349252647052631,4,5.9,29.9
6.03333333333333,11.7085623109094,25.926218945591,1.40496015389801,0.0392603661519595,4,5.9,29.9
6.06666666666667,11.7080591362155,25.9737706076981,1.44916784252109,0.0442076886230882,4,5.9,29.9
6.1,11.7075384822991,26.0228845335561,1.49876116053238,0.04959331801129,4,5.9,29.9
6.13333333333333,11.7069976070413,26.0737452013778,1.5540076947819,0.0552465342495125,4,5.9,29.9
6.16666666666667,11.7064337289182,26.1265427838271,1.61498211932587,0.0609744245439705,4,5.9,29.9
6.2,11.7058441232999,26.1814672745947,1.68160956257174,0.0666274432458756,4,5.9,29.9
6.23333333333333,11.7052261987981,26.2387042230795,1.75369562168953,0.072086059117787,4,5.9,29.9
6.26666666666667,11.704577569687,26.2984301412433,1.8308880405781,0.0771924188885753,4,5.9,29.9
6.3,11.703896122654,26.3608074560077,1.91270279422235,0.0818147536442435,4,5.9,29.9
6.33333333333333,11.7031800570603,26.4259808479257,1.99856391596523,0.085861121742884,4,5.9,29.9
6.36666666666667,11.7024279003014,26.4940746691573,2.08783285775447,0.0892689417892416,4,5.9,29.9
6.4,11.7016384982269,26.5651914664124,2.17984615630635,0.0920132985518807,4,5.9,29.9
6.43333333333333,11.7008109812628,26.6394117669855,2.27395344605095,0.0941072897446005,4,5.9,29.9
6.46666666666667,11.699944703344,26.7167958219223,2.3696077180574,0.0956542720064459,4,5.9,29.9
6.5,11.6990391543326,26.7973877729506,2.46637253842202,0.0967648203646179,4,5.9,29.9
6.53333333333333,11.6980938956884,26.8812179793312,2.56385518384019,0.097482645418169,4,5.9,29.9
6.56666666666667,11.6971085251904,26.9683044282064,2.66170655134691,0.0978513675067263,4,5.9,29.9
