Time,x_ego,y_ego,velocity,acceleration,action,x_ped,y_ped
0,11.8,15.9,7,0,1,15.5,29.9
0.0333333333333333,11.8,16.1332703793943,6.99615577953002,-0.00384422046998356,1,15.5,29.9
0.0666666666666667,11.8,16.3664065988113,6.99196947109348,-0.00418630843653833,1,15.5,29.9
0.1,11.8,16.5994007552791,6.98769498718995,-0.00427448390352669,1,15.5,29.9
0.133333333333333,11.8,16.8322537852842,6.9834976545359,-0.00419733265404787,1,15.5,29.9
0.166666666666667,11.8,17.0649678802301,6.97935585456763,-0.00414179996826913,1,15.5,29.9
0.2,11.8,17.2975446186632,6.97525409491249,-0.00410175965514537,1,15.5,29.9
0.233333333333333,11.8,17.5299851399444,6.97118127319767,-0.00407282171482137,1,15.5,29.9
0.266666666666667,11.8,17.7622902687052,6.96712943294736,-0.00405184025031069,1,15.5,29.9
0.3,11.8,17.9944606040335,6.96309287213007,-0.00403656081728965,1,15.5,29.9
0.333333333333333,11.8,18.2264965833863,6.95906750439986,-0.00402536773020401,1,15.5,29.9
0.366666666666667,11.8,18.4583985283897,6.95505040137947,-0.00401710302039238,1,15.5,29.9
0.4,11.8,18.6901666776599,6.95103946463339,-0.00401093674607722,1,15.5,29.9
0.433333333333333,11.8,18.9218012103233,6.94703319054231,-0.00400627409108711,1,15.5,29.9
0.466666666666667,11.8,19.1533022628712,6.94303050173604,-0.00400268880626342,1,15.5,29.9
0.5,11.8,19.3846699412377,6.93903062623031,-0.00399987550573222,1,15.5,29.9
0.533333333333333,11.8,19.6159043294559,6.93503301077307,-0.00399761545723631,1,15.5,29.9
0.566666666666667,11.8,19.8470054958598,6.93103725873891,-0.00399575203416092,1,15.5,29.9
0.6,11.8,20.0779734975296,6.92704308564579,-0.003994173093127,1,15.5,29.9
0.633333333333333,11.8,20.3088083834769,6.92305028732138,-0.00399279832440236,1,15.5,29.9
0.666666666666667,11.8,20.539510196927,6.91905871714157,-0.00399157017981544,1,15.5,29.9
0.7,11.7999983709446,20.7700789769541,6.91506827109263,-0.00399044604893461,1,15.5,29.9
0.733333333333333,11.7999873329032,21.0005147596136,6.91107888911204,-0.00398938198059362,1,15.5,29.9
0.766666666666667,11.7999577827188,21.2308175785186,6.90709054428026,-0.00398834483178323,1,15.5,29.9
0.8,11.7999031993919,21.4609874649551,6.90310321858039,-0.00398732569987104,1,15.5,29.9
0.833333333333333,11.7998168792646,21.6910244477091,6.89911691260317,-0.0039863059772145,1,15.5,29.9
0.866666666666667,11.7996922092294,21.9209285527281,6.89513160487284,-0.00398530773033645,1,15.5,29.9
0.9,11.7995258077491,22.1506998034717,6.89114723118518,-0.00398437368765148,1,15.5,29.9
0.933333333333333,11.7993171455423,22.3803382218854,6.88716372543239,-0.00398350575279149,1,15.5,29.9
0.966666666666667,11.7990674097368,22.609843829527,6.88318103987944,-0.00398268555295633,1,15.5,29.9
1,11.7987786749591,22.8392166484971,6.87919915095433,-0.0039818889251082,1,15.5,29.9
1.03333333333333,11.7984533634625,23.0684567019906,6.8752180544987,-0.0039810964556235,1,15.5,29.9
1.06666666666667,11.798093929383,23.297564014473,6.87123775744934,-0.00398029704935965,1,15.5,29.9
1.1,11.7977026892127,23.5265386115829,6.86725827074301,-0.00397948670633319,1,15.5,29.9
1.13333333333333,11.797281731155,23.7553805198752,6.86327960515019,-0.0039786655928209,1,15.5,29.9
1.16666666666667,11.7968328584091,23.9840897664938,6.85930176971435,-0.00397783543584129,1,15.5,29.9
1.2,11.7963575453919,24.2126663788334,6.85532477172643,-0.00397699798791962,1,15.5,29.9
1.23333333333333,11.7958569044506,24.44111038423,6.85134861722949,-0.003976154496943,1,15.5,29.9
1.26666666666667,11.795331670551,24.6694218097085,6.84737331143251,-0.00397530579697936,1,15.5,29.9
1.3,11.7947822128837,24.8976006818107,6.84339885880956,-0.00397445262295104,1,15.5,29.9
1.33333333333333,11.7942085777126,25.125647026515,6.83942526293267,-0.00397359587689117,1,15.5,29.9
1.36666666666667,11.7936105594749,25.3535608692493,6.83545252620491,-0.00397273672775267,1,15.5,29.9
1.4,11.7929877903313,25.5813422349829,6.83148064965747,-0.00397187654744702,1,15.5,29.9
1.43333333333333,11.7923398342908,25.8089911483753,6.82750963291105,-0.00397101674641309,1,15.5,29.9
1.46666666666667,11.7916662716252,26.0365076339482,6.82353947433081,-0.00397015858024652,1,15.5,29.9
1.5,11.7909667622413,26.2638917162483,6.81957017134948,-0.00396930298132592,1,15.5,29.9
1.53333333333333,11.7902410818295,26.4911434199741,6.81560172090042,-0.00396845044906335,1,15.5,29.9
1.56666666666667,11.789489954366,26.7182627721972,6.81163406829597,-0.00396765260445164,1,15.5,29.9
1.6,11.7887169090415,26.9452498079127,6.80766719566438,-0.00396687263158579,1,15.5,29.9
1.63333333333333,11.7879248573321,27.1721045618421,6.80370114609651,-0.00396604956786728,1,15.5,29.9
1.66666666666667,11.78711541204,27.3988270660141,6.79973594753238,-0.0039651985641278,1,15.5,29.9
1.7,11.786289241046,27.6254173500881,6.79577161408053,-0.00396433345185176,1,15.5,29.9
1.73333333333333,11.785446396339,27.8518754418789,6.79180815005673,-0.00396346402380399,1,15.5,29.9
1.76666666666667,11.7845865761407,28.078201367907,6.78784555407227,-0.00396259598445514,1,15.5,29.9
1.8,11.7837093080553,28.3043951538628,6.78388382210914,-0.00396173196313399,1,15.5,29.9
1.83333333333333,11.7828140617258,28.530456824943,6.77992294946385,-0.0039608726452931,1,15.5,29.9
1.86666666666667,11.7819003098679,28.7563864060712,6.77596293179432,-0.00396001766952736,1,15.5,29.9
1.9,11.7809675583952,28.9821839220403,6.77200376554649,-0.00395916624782888,1,15.5,29.9
1.93333333333333,11.780015362449,29.2078493976151,6.7680454479893,-0.003958317557192,1,15.5,29.9
1.96666666666667,11.7790433386145,29.4333828576246,6.7640879770387,-0.00395747095060006,1,15.5,29.9
2,11.7780511770921,29.6587843270526,6.76013135101275,-0.00395662602595248,1,15.5,29.9
2.03333333333333,11.7770386528397,29.8840538311231,6.75617556841958,-0.00395578259316576,1,15.5,29.9
2.06666666666667,11.7760056324408,30.1091913953661,6.75222062783477,-0.00395494058481383,1,15.5,29.9
2.1,11.7749520735197,30.3341970456503,6.74826652788013,-0.00395409995463947,1,15.5,29.9
2.13333333333333,11.7738780151854,30.5590708081736,6.74431326728144,-0.0039532605986885,1,15.5,29.9
2.16666666666667,11.7727835602634,30.7838127094122,6.74036084496238,-0.00395242231905968,1,15.5,29.9
2.2,11.7716688520991,31.0084227760373,6.73640926012884,-0.0039515848335423,1,15.5,29.9
2.23333333333333,11.7705332347288,31.2329010311587,6.73245855425488,-0.00395070587395807,1,15.5,29.9
2.26666666666667,11.7693726004962,31.4572474818251,6.72850878625802,-0.00394976799685498,1,15.5,29.9
2.3,11.7681809650736,31.681462124761,6.72455994787913,-0.00394883837889104,1,15.5,29.9
2.33333333333333,11.7669534762626,31.9055449596493,6.7206120397582,-0.00394790812092705,1,15.5,29.9
2.36666666666667,11.7656840236452,32.1294959777138,6.71666510588728,-0.00394693387092904,1,15.5,29.9
2.4,11.7643661249563,32.3533151650927,6.71271911725191,-0.00394598863536455,1,15.5,29.9
2.43333333333333,11.7629961555844,32.5770025188685,6.70877398604291,-0.0039451312090053,1,15.5,29.9
2.46666666666667,11.7615731499265,32.800558047757,6.7048296402585,-0.00394434578440617,1,15.5,29.9
2.5,11.7600978187207,33.0239817688422,6.7008860348055,-0.00394360545300376,1,15.5,29.9
2.53333333333333,11.7585717932769,33.2472737049497,6.69694315276529,-0.00394288204020832,1,15.5,29.9
2.56666666666667,11.7569978789217,33.470433887225,6.69300091888271,-0.00394223388257497,1,15.5,29.9
2.6,11.7553814951882,33.6934623651048,6.68905932068108,-0.00394159820162976,1,15.5,29.9
2.63333333333333,11.7537273328803,33.9163591876657,6.68511844634833,-0.00394087433275736,1,15.5,29.9
2.66666666666667,11.7520386463587,34.1391243981536,6.68117836258483,-0.0039400837634922,1,15.5,29.9
2.7,11.7503175534744,34.361758034385,6.67723911101894,-0.00393925156589159,1,15.5,29.9
2.73333333333333,11.7485653256623,34.5842601294907,6.67330071287444,-0.0039383981445047,1,15.5,29.9
2.76666666666667,11.7467826178236,34.8066307126713,6.6693631760127,-0.00393753686173604,1,15.5,29.9
2.8,11.7449696290976,35.0288698098106,6.66542650116701,-0.00393667484569082,1,15.5,29.9
2.83333333333333,11.7431270179698,35.2509774498304,6.6614906136527,-0.00393588751430851,1,15.5,29.9
2.86666666666667,11.7412585916197,35.4729536851123,6.65755542449191,-0.00393518916079483,1,15.5,29.9
2.9,11.7393706177494,35.6947985886508,6.65362091592268,-0.00393450856922772,1,15.5,29.9
2.93333333333333,11.7374707128596,35.9165122470514,6.64968712370805,-0.00393379221462808,1,15.5,29.9
2.96666666666667,11.7355669204291,36.1380947536852,6.64575411105394,-0.00393301265410884,1,15.5,29.9
3,11.7336672973957,36.3595462048028,6.64182194686475,-0.00393216418919007,1,15.5,29.9
3.03333333333333,11.731779575545,36.5808666957385,6.63789068984296,-0.00393125702179642,1,15.5,29.9
3.06666666666667,11.7299104319593,36.802056313742,6.63396040306732,-0.00393028677563567,1,15.5,29.9
3.1,11.7280629270022,37.0231151159299,6.63003110476949,-0.00392929829783384,1,15.5,29.9
3.13333333333333,11.7262369730302,37.244043132086,6.62610275655452,-0.00392834821497079,1,15.5,29.9
3.16666666666667,11.7244305902547,37.4648403749477,6.6221753075862,-0.00392744896831054,1,15.5,29.9
3.2,11.7226408522309,37.685506848517,6.61824871801818,-0.00392658956802272,1,15.5,29.9
3.23333333333333,11.7208645014828,37.9060425536869,6.61432296419827,-0.00392575381990845,1,15.5,29.9
3.26666666666667,11.7190983133996,38.1264474915963,6.6103980352148,-0.00392492898347463,1,15.5,29.9
3.3,11.7173392978334,38.3467216654304,6.60647392765347,-0.00392410756132655,1,15.5,29.9
3.33333333333333,11.7155848130152,38.5668650813542,6.60255064157757,-0.00392328607590464,1,15.5,29.9
3.36666666666667,11.7138325993455,38.7868777487259,6.59862817798054,-0.00392246359703208,1,15.5,29.9
3.4,11.7120807416559,39.0067596797249,6.59470653822964,-0.00392163975089677,1,15.5,29.9
3.43333333333333,11.7103270680312,39.2265108844744,6.59078572100539,-0.00392081722424464,1,15.5,29.9
3.46666666666667,11.7085673575323,39.4461313566287,6.58686573201108,-0.0039199889943129,1,15.5,29.9
