Time,x_ego,y_ego,velocity,acceleration,action,x_ped,y_ped
0,11.8,8.9,5,0,1,15.5,29.9
0.0333333333333333,11.8000006488626,9.06660768884175,4.99642261469764,-0.00357738530236151,1,15.4972222222222,29.9
0.0666666666666667,11.800005398167,9.23309265310632,4.99264757366758,-0.00377504103006032,1,15.4888888888889,29.9
0.1,11.8000193137479,9.39944929682233,4.98873133066602,-0.00391624300155691,1,15.475,29.9
0.133333333333333,11.8000466769651,9.56567362393168,4.98471435706674,-0.00401697359928122,1,15.4555555555556,29.9
0.166666666666667,11.8000926446395,9.73176278476558,4.98062567782608,-0.00408867924066136,1,15.4305555555556,29.9
0.2,11.8001625741575,9.89771475079986,4.97648609180435,-0.00413958602172926,1,15.4,29.9
0.233333333333333,11.8002594641952,10.0635280816856,4.97231047318693,-0.00417561861741866,1,15.3666666666667,29.9
0.266666666666667,11.8003839108154,10.2292017586195,4.96810945591214,-0.00420101727478883,1,15.3333333333333,29.9
0.3,11.80053540241,10.3947350650789,4.96389068429787,-0.00421877161427542,1,15.3,29.9
0.333333333333333,11.8007144368454,10.5601275008999,4.95965963963988,-0.00423104465798829,1,15.2666666666667,29.9
0.366666666666667,11.8009205814574,10.7253787214238,4.95542021350066,-0.00423942613921469,1,15.2333333333333,29.9
0.4,11.8011522474098,10.890488494065,4.95117519190344,-0.00424502159721918,1,15.2,29.9
0.433333333333333,11.8014065334146,11.0554566674792,4.94692652612064,-0.00424866578280714,1,15.1666666666667,29.9
0.466666666666667,11.8016781476455,11.2202831504427,4.94267563488359,-0.00425089123705114,1,15.1333333333333,29.9
0.5,11.8019621932131,11.3849678944652,4.93842360527332,-0.00425202961026816,1,15.1,29.9
0.533333333333333,11.8022550391705,11.5495108810535,4.93417123177914,-0.0042523734941744,1,15.0666666666667,29.9
0.566666666666667,11.8025543128116,11.7139121126394,4.92991908793833,-0.00425214384081585,1,15.0333333333333,29.9
0.6,11.8028581926931,11.878171606703,4.92566754409388,-0.00425154384444415,1,15,29.9
0.633333333333333,11.8031632031462,12.042289393748,4.92141684254388,-0.00425070155000196,1,14.9666666666667,29.9
0.666666666666667,11.8034648427938,12.2062655139345,4.91716721481128,-0.00424962773260518,1,14.9333333333333,29.9
0.7,11.8037598246945,12.3701000121207,4.91291883207176,-0.00424838273951966,1,14.9,29.9
0.733333333333333,11.804044940486,12.5337929372246,4.90867182044172,-0.00424701163003771,1,14.8666666666667,29.9
0.766666666666667,11.804318836877,12.6973443384718,4.90442627737815,-0.0042455430635675,1,14.8333333333333,29.9
0.8,11.8045820590524,12.8607542641103,4.90018224946148,-0.00424402791667067,1,14.8,29.9
0.833333333333333,11.8048364080628,13.0240227615648,4.89593975509713,-0.00424249436435442,1,14.7666666666667,29.9
0.866666666666667,11.8050843619963,13.1871498779031,4.89169880148848,-0.00424095360864563,1,14.7333333333333,29.9
0.9,11.8053286135762,13.3501356603348,4.88745939370578,-0.00423940778270548,1,14.7,29.9
0.933333333333333,11.8055717404456,13.5129801565852,4.88322153758312,-0.00423785612265704,1,14.6666666666667,29.9
0.966666666666667,11.8058159982419,13.6756834151044,4.87898523937951,-0.0042362982036126,1,14.6333333333333,29.9
1,11.8060632121801,13.8382454851339,4.87475050456587,-0.00423473481363956,1,14.6,29.9
1.03333333333333,11.806314738976,14.0006664166874,4.87051733696065,-0.00423316760521608,1,14.5666666666667,29.9
1.06666666666667,11.8065708715036,14.1629462613664,4.86628573135375,-0.00423160560689695,1,14.5333333333333,29.9
1.1,11.8068293817632,14.325085074526,4.86205568313713,-0.00423004821662332,1,14.5,29.9
1.13333333333333,11.8070873149079,14.4870829127773,4.85782719257116,-0.00422849056596775,1,14.4666666666667,29.9
1.16666666666667,11.8073403378904,14.6489398349617,4.85360026915346,-0.00422692341770414,1,14.4333333333333,29.9
1.2,11.8075845273364,14.8106558994067,4.84937492809966,-0.00422534105379668,1,14.4,29.9
1.23333333333333,11.8078148784659,14.9722311659285,4.84515119224844,-0.00422373585122227,1,14.3666666666667,29.9
1.26666666666667,11.8080258493197,15.1336656946977,4.84092908771991,-0.00422210452852845,1,14.3333333333333,29.9
1.3,11.8082134826126,15.2949595427216,4.83670863096711,-0.00422045675280103,1,14.3,29.9
1.33333333333333,11.8083742188379,15.4561127653586,4.8324898240309,-0.0042188069362048,1,14.2666666666667,29.9
1.36666666666667,11.8085060033324,15.6171254146649,4.82827266164541,-0.00421716238549319,1,14.2333333333333,29.9
1.4,11.8086068536367,15.7779975414982,4.82405712872157,-0.00421553292384491,1,14.2,29.9
1.43333333333333,11.8086766018474,15.9387291934437,4.81984316831775,-0.00421396040381605,1,14.1666666666667,29.9
1.46666666666667,11.8087169099602,16.0993204155644,4.81563072373017,-0.00421244458758174,1,14.1333333333333,29.9
1.5,11.8087306015597,16.2597712520528,4.81141975403795,-0.00421096969222301,1,14.1,29.9
1.53333333333333,11.80872106097,16.4200817475244,4.80721024094542,-0.00420951309252438,1,14.0666666666667,29.9
1.56666666666667,11.8086917429285,16.5802519478203,4.80300218737347,-0.00420805357194709,1,14.0333333333333,29.9
1.6,11.8086458101702,16.7402819003369,4.79879561107113,-0.00420657630234178,1,14,29.9
1.63333333333333,11.8085858974396,16.9001716539875,4.79459053686375,-0.00420507420738314,1,13.9666666666667,29.9
1.66666666666667,11.8085139884342,17.0599212589372,4.79038699008761,-0.00420354677613677,1,13.9333333333333,29.9
1.7,11.808431385941,17.2195307662395,4.78618499233996,-0.00420199774765084,1,13.9,29.9
1.73333333333333,11.8083387532213,17.3789998641469,4.78196276066575,-0.00422223167421443,1,13.8666666666667,29.9
1.76666666666667,11.8082361899858,17.5382704729954,4.774276084287,-0.00768667637874465,1,13.8333333333333,29.9
1.8,11.8081233772026,17.6972561844423,4.76486941201935,-0.00940667226765246,1,13.8,29.9
1.83333333333333,11.8079997344382,17.8558706062098,4.75199931092857,-0.0128701010907779,1,13.7666666666667,29.9
1.86666666666667,11.8078645554805,18.0140273676525,4.73741047969129,-0.0145888312372806,1,13.7333333333333,29.9
1.9,11.8077171334829,18.171668823759,4.72108177672344,-0.0163287029678543,1,13.7,29.9
1.93333333333333,11.807556857862,18.3287086487113,4.70131353969914,-0.0197682370243006,3,13.6666666666667,29.9
1.96666666666667,11.8073832776818,18.4850896090344,4.68155089944248,-0.0197626402566522,3,13.6333333333333,29.9
2,11.8071961552383,18.6407254271266,4.65660619629304,-0.0249447031494494,3,13.6,29.9
2.03333333333333,11.8069955000918,18.7954433837,4.62648055756091,-0.0301256387321223,3,13.5666666666667,29.9
2.06666666666667,11.8067815770927,18.9490130326777,4.58770929919044,-0.038771258370474,3,13.5333333333333,29.9
2.1,11.8065548665185,19.1012039856452,4.54376046524316,-0.0439488339472742,3,13.5,29.9
2.13333333333333,11.8063160209197,19.2518146192012,4.49289195049842,-0.050868514744745,3,13.4666666666667,29.9
2.16666666666667,11.8060658562987,19.4006146730136,4.43512763269606,-0.0577643178023557,3,13.4333333333333,29.9
2.2,11.8058053255311,19.5473452553123,4.36872577812241,-0.0664018545736562,3,13.4,29.9
2.23333333333333,11.8055354702096,19.6917475531286,4.29543280547825,-0.073292972644162,3,13.3666666666667,29.9
2.26666666666667,11.8052573178443,19.8336493052045,4.21869532954628,-0.0767374759319672,3,13.3333333333333,29.9
2.3,11.8049718410112,19.9729647908892,4.14025911910923,-0.0784362104370535,3,13.3,29.9
2.33333333333333,11.8046799464804,20.109666112,4.06184765630178,-0.078411462807443,3,13.2666666666667,29.9
2.36666666666667,11.8043824780638,20.2437541108493,3.98346178287315,-0.0783858734286302,3,13.2333333333333,29.9
2.4,11.8040802312654,20.3752296551967,3.90510205290126,-0.0783597299718943,3,13.2,29.9
2.43333333333333,11.8037739450212,20.5040936300822,3.82676883344021,-0.0783332194610447,3,13.1666666666667,29.9
2.46666666666667,11.8034642986982,20.6303469319709,3.7484623798531,-0.0783064535871141,3,13.1333333333333,29.9
2.5,11.8031519134442,20.7539904645564,3.67018288664858,-0.0782794932045183,3,13.1,29.9
2.53333333333333,11.8028373570747,20.8750251357561,3.59193051515671,-0.078252371491875,3,13.0666666666667,29.9
2.56666666666667,11.802521151712,20.9934518555642,3.51370540150559,-0.0782251136511154,3,13.0333333333333,29.9
2.6,11.8022037833537,21.1092715345201,3.43550765073878,-0.0781977507668117,3,13,29.9
2.63333333333333,11.8018857124498,21.2224850826191,3.35733732439743,-0.0781703263413442,3,12.9666666666667,29.9
2.66666666666667,11.8015673844953,21.3330934085409,3.27919442884227,-0.0781428955551688,3,12.9333333333333,29.9
2.7,11.8012492396357,21.4410974191023,3.20107890996901,-0.0781155188732545,3,12.9,29.9
2.73333333333333,11.8009317203888,21.5464980188715,3.12299065724923,-0.0780882527197813,3,12.8666666666667,29.9
2.76666666666667,11.8006152768224,21.6492961098923,3.04492951696522,-0.0780611402840088,3,12.8333333333333,29.9
2.8,11.8003003688556,21.7494925914879,2.96689531189041,-0.078034205074808,3,12.8,29.9
2.83333333333333,11.7999874657361,21.8470883601164,2.88888786308261,-0.078007448807806,3,12.7666666666667,29.9
2.86666666666667,11.799677043109,21.9420843092631,2.81090700916347,-0.0779808539191365,3,12.7333333333333,29.9
2.9,11.7993695783782,22.0344813293581,2.73295261935642,-0.0779543898070485,3,12.7,29.9
2.93333333333333,11.7990655452121,22.1242803077123,2.65502459826956,-0.077928021086858,3,12.6666666666667,29.9
2.96666666666667,11.7987654080586,22.2114821284667,2.57712288241872,-0.0779017158508446,3,12.6333333333333,29.9
3,11.7984696886817,22.2960586065648,2.49750348844133,-0.0796193939773842,3,12.6,29.9
3.03333333333333,11.7981788963346,22.3779815576334,2.41791052776501,-0.079592960676325,3,12.5666666666667,29.9
3.06666666666667,11.7978934543702,22.4572518648554,2.33834406959755,-0.0795664581674638,3,12.5333333333333,29.9
3.1,11.797613766415,22.5338704110475,2.25880413769125,-0.0795399319062993,3,12.5,29.9
3.13333333333333,11.7973402120926,22.60783896199,2.17939929645712,-0.0794048412341288,3,12.4666666666667,29.9
3.16666666666667,11.7970731163107,22.6791713666381,2.10079002983799,-0.07860926661913,3,12.4333333333333,29.9
3.2,11.796812705326,22.7479090142139,2.02380396916814,-0.0769860606698507,3,12.4,29.9
3.23333333333333,11.7965591263411,22.8141118987168,1.9487271215532,-0.075076847614935,3,12.3666666666667,29.9
3.26666666666667,11.79631248208,22.8778447361017,1.87558953112301,-0.0731375904301939,3,12.3333333333333,29.9
3.3,11.7960728466094,22.9391709073326,1.80431291799782,-0.0712766131251907,3,12.3,29.9
3.33333333333333,11.7958402705144,22.9981509440004,1.73479972456658,-0.069513193431241,3,12.2666666666667,29.9
3.36666666666667,11.79561478651,23.0548413639356,1.6669158845368,-0.0678838400297785,3,12.2333333333333,29.9
3.4,11.7953964121755,23.1092948467676,1.6005716593507,-0.0663442251861017,3,12.2,29.9
3.43333333333333,11.7951851490178,23.1615618206862,1.53571672488888,-0.0648549344618159,3,12.1666666666667,29.9
3.46666666666667,11.7949809848884,23.2116908981499,1.47228383452641,-0.0634328903624677,3,12.1333333333333,29.9
3.5,11.794783899086,23.2597283475003,1.4102102188514,-0.0620736156750175,3,12.1,29.9
3.53333333333333,11.7945938634271,23.3057188028776,1.34945928803363,-0.0607509308177683,3,12.0666666666667,29.9
3.56666666666667,11.7944108430801,23.3497058795013,1.28999951371408,-0.0594597743195493,3,12.0333333333333,29.9
3.6,11.7942348000638,23.3917317414062,1.23177783454759,-0.0582216791664887,3,12,29.9
3.63333333333333,11.7940656955271,23.4318369101697,1.17475238176889,-0.0570254527787009,3,11.9666666666667,29.9
3.66666666666667,11.7939034893903,23.470060772366,1.11889577735103,-0.0558566044178597,3,11.9333333333333,29.9
3.7,11.7937481392633,23.5064421659926,1.06421030121557,-0.0546854761354565,3,11.9,29.9
3.73333333333333,11.7935995960055,23.5410208804731,1.01074225453144,-0.0534680466841293,3,11.8666666666667,29.9
3.76666666666667,11.7934578020062,23.5738381670887,0.958529148554495,-0.0522131059769476,3,11.8333333333333,29.9
3.8,11.793322692338,23.6049362665074,0.90759268400705,-0.0509364645474454,3,11.8,29.9
3.83333333333333,11.7931941010718,23.6343868747547,0.859671012483779,-0.0479216715232706,3,11.7666666666667,29.9
3.86666666666667,11.7930718603916,23.6622601513265,0.812934542211265,-0.046736470272514,3,11.7333333333333,29.9
3.9,11.7929559001138,23.6885940481648,0.767293936578434,-0.0456406056328307,3,11.7,29.9
3.93333333333333,11.7928461513921,23.7134239085176,0.722681027788749,-0.0446129087896854,3,11.6666666666667,29.9
3.96666666666667,11.7927424493266,23.7368117616906,0.680763585135585,-0.041917442653164,3,11.6333333333333,29.9
4,11.792644626525,23.758817990845,0.639779538512967,-0.0409840466226186,3,11.6,29.9
4.03333333333333,11.7925526052883,23.7794737189606,0.599735099830761,-0.0400444386822058,3,11.5666666666667,29.9
4.06666666666667,11.7924662027661,23.7988391555087,0.562360846283113,-0.0373742535476478,3,11.5333333333333,29.9
4.1,11.7923852287329,23.8169744925219,0.525926082090757,-0.0364347641923563,3,11.5,29.9
4.13333333333333,11.7923095841434,23.8339108124393,0.490416397149664,-0.0355096849410928,3,11.4666666666667,29.9
4.16666666666667,11.7922391657761,23.8496786765877,0.45581506637692,-0.0346013307727438,3,11.4333333333333,29.9
4.2,11.7921738674741,23.8643080312147,0.422099896014879,-0.033715170362041,3,11.4,29.9
4.23333333333333,11.7921135825775,23.8778277533195,0.38922867689218,-0.0328712191226991,3,11.3666666666667,29.9
4.26666666666667,11.7920582061886,23.8902652337586,0.357158231421156,-0.0320704454710244,3,11.3333333333333,29.9
4.3,11.7920075355145,23.9016755875855,0.327594009218909,-0.0295642222022462,3,11.3,29.9
4.33333333333333,11.7919613696598,23.9121126195131,0.298752120385691,-0.028841888833218,3,11.2666666666667,29.9
4.36666666666667,11.7919196097705,23.9215998026242,0.270597352316938,-0.0281547680687533,3,11.2333333333333,29.9
4.4,11.7918821593018,23.9301595269692,0.243099691378859,-0.0274976609380795,3,11.2,29.9
4.43333333333333,11.7918488249074,23.9378419428918,0.217954171790829,-0.02514551958803,3,11.1666666666667,29.9
4.46666666666667,11.7918194146386,23.9446965762731,0.193438351630326,-0.0245158201605025,3,11.1333333333333,29.9
4.5,11.7917938324254,23.9507450792224,0.169592063834653,-0.0238462877956729,3,11.1,29.9
4.53333333333333,11.7917719782947,23.9560102503099,0.146441554646524,-0.0231505091881287,3,11.0666666666667,29.9
4.56666666666667,11.7917537505887,23.9605155217932,0.123999328734638,-0.0224422259118863,3,11.0333333333333,29.9
4.6,11.7917390477146,23.964284567649,0.102267938527107,-0.021731390207531,3,11,29.9
4.63333333333333,11.7917277694744,23.9673410205315,0.0812427979621529,-0.0210251405649543,3,10.9666666666667,29.9
4.66666666666667,11.7917198180885,23.9697082693459,0.060914287944655,-0.0203285100174979,3,10.9333333333333,29.9
4.7,11.7917150989927,23.9714093164178,0.0412694078457698,-0.0196448800988852,3,10.9,29.9
4.73333333333333,11.7917135214739,23.972466678657,0.0222936153106363,-0.0189757925351335,3,10.8666666666667,29.9
4.76666666666667,11.7917149991942,23.9729023211419,0.0039915718886884,-0.0183020434219479,3,10.8333333333333,29.9
4.8,11.7917188041785,23.9729240759286,0.0057801757358771,0.0017886038471887,5,10.8,29.9
4.83333333333333,11.7917242407783,23.9727321086152,0.000481669603774455,-0.00529850613210264,5,10.7666666666667,29.9
4.86666666666667,11.7917242407783,23.9727321086152,0.000561060491846663,7.9390888072208e-05,5,10.7333333333333,29.9
4.9,11.7917242407783,23.9727321086152,0.000701792759773255,0.000140732267926592,5,10.7,29.9
4.93333333333333,11.7917242407783,23.9727321086152,0.000887376487962995,0.00018558372818974,5,10.6666666666667,29.9
4.96666666666667,11.7917242407783,23.9727321086152,0.0010950958535645,0.000207719365601503,5,10.6333333333333,29.9
5,11.7917242407783,23.9727321086152,0.00129957256324008,0.000204476709675587,5,10.6,29.9
5.03333333333333,11.7917242407783,23.9727321086152,0.00147599954346748,0.000176426980227399,5,10.5666666666667,29.9
5.06666666666667,11.7917242407783,23.9727321086152,0.00160282046530756,0.000126820921840079,5,10.5333333333333,29.9
5.1,11.7917242407783,23.9727321086152,0.00166371329023157,6.08928249240105e-05,5,10.5,29.9
5.13333333333333,11.7917242407783,23.9727321086152,0.00164881561636546,-1.48976738661146e-05,5,10.4666666666667,29.9
5.16666666666667,11.7917242407783,23.9727321086152,0.0015552007677264,-9.36148486390595e-05,5,10.4333333333333,29.9
5.2,11.7917242407783,23.9727321086152,0.0014852212339714,-6.99795337549948e-05,5,10.4,29.9
5.23333333333333,11.7917235239274,23.9729392173608,0.00785224020001358,0.00636701896604218,5,10.3666666666667,29.9
5.26666666666667,11.7917221654532,23.9733317249229,0.0158940222787434,0.00804178207872981,5,10.3333333333333,29.9
5.3,11.7917196761234,23.9740507772141,0.0273274153821233,0.01143339310338,5,10.3,29.9
5.33333333333333,11.7917155728151,23.9752354986216,0.043772181745555,0.0164447663634317,5,10.2666666666667,29.9
5.36666666666667,11.7917093802976,23.9770222066295,0.0634059454756125,0.0196337637300575,4,10.2333333333333,29.9
5.4,11.7917005320723,23.9795726573946,0.0895649386743159,0.0261589931987034,4,10.2,29.9
5.43333333333333,11.791688370007,23.9830734897993,0.120399983650474,0.0308350449761578,4,10.1666666666667,29.9
5.46666666666667,11.791672242255,23.9877069394019,0.157494580932775,0.0370945972823017,4,10.1333333333333,29.9
5.5,11.7916513001347,23.9937081511318,0.202436449098371,0.0449418681655959,4,10.1,29.9
5.53333333333333,11.7916248909189,24.001249714116,0.249891465182462,0.0474550160840903,4,10.0666666666667,29.9
5.56666666666667,11.7915928481598,24.0103556979772,0.296303867010904,0.0464124018284423,4,10.0333333333333,29.9
5.6,11.7915551754499,24.0209916386951,0.341694393243907,0.0453905262330026,4,10,29.9
5.63333333333333,11.7915118388722,24.0331238511186,0.386085440395718,0.0443910471518115,4,9.96666666666667,29.9
5.66666666666667,11.7914627668951,24.0467193603065,0.429497036466038,0.0434115960703205,4,9.93333333333333,29.9
5.7,11.7914078522724,24.061745830003,0.471946525567455,0.0424494891014165,4,9.9,29.9
5.73333333333333,11.791346956844,24.0781712523927,0.513432346969066,0.041485821401611,4,9.86666666666667,29.9
5.76666666666667,11.7912799196135,24.0959632850463,0.553941728801308,0.0405093818322418,4,9.83333333333334,29.9
5.8,11.7912065642575,24.1150893085014,0.593471343264249,0.0395296144629411,4,9.8,29.9
5.83333333333333,11.7911267074508,24.1355167251547,0.632025664446273,0.0385543211820242,4,9.76666666666667,29.9
5.86666666666667,11.7910401687109,24.1572131783126,0.669614703562675,0.037589039116402,4,9.73333333333333,29.9
5.9,11.7909467810769,24.180146740181,0.706257286072606,0.0366425825099308,4,9.7,29.9
5.93333333333333,11.790846399873,24.2042866830659,0.742009065219308,0.0357517791467019,4,9.66666666666667,29.9
5.96666666666667,11.7907389105537,24.229604353032,0.776930955994869,0.0349218907755615,4,9.63333333333333,29.9
6,11.7906242392404,24.2560729195452,0.811071934104444,0.0341409781095746,4,9.6,29.9
6.03333333333333,11.7905023617726,24.2836670324439,0.844472092012252,0.0334001579078083,4,9.56666666666667,29.9
6.06666666666667,11.7903733101213,24.3123625667849,0.877164892074313,0.0326928000620609,4,9.53333333333333,29.9
6.1,11.7902371758338,24.3421364314453,0.909179056642225,0.0320141645679117,4,9.5,29.9
6.13333333333333,11.7900941109152,24.3729662478659,0.940519654942133,0.0313405982999079,4,9.46666666666667,29.9
6.16666666666667,11.7899443292791,24.4048289996979,0.971151838634858,0.0306321836927255,4,9.43333333333333,29.9
6.2,11.7897881016386,24.4377006751401,1.00105393942541,0.0299021007905512,4,9.4,29.9
6.23333333333333,11.7896257444632,24.471556773628,1.0302169952944,0.0291630558689915,4,9.36666666666667,29.9
6.26666666666667,11.7894576071103,24.5063726280139,1.05864005752617,0.0284230622317643,4,9.33333333333333,29.9
6.3,11.7892840572111,24.5421236730015,1.08633004249206,0.0276899849658898,4,9.3,29.9
6.33333333333333,11.789105464955,24.5787856700344,1.1132994317553,0.0269693892632497,4,9.26666666666667,29.9
6.36666666666667,11.7889221871642,24.6163348627162,1.13956495712463,0.0262655253693214,4,9.23333333333333,29.9
