Time,x_ego,y_ego,velocity,acceleration,action,x_ped,y_ped
0,11.8,8.9,5,0,1,15.5,29.9
0.0333333333333333,11.8000079098655,9.06660768882073,4.99642265960717,-0.0035773403928312,1,15.5,29.9
0.0666666666666667,11.8000586539283,9.23309265215888,4.99264811348178,-0.00377454612538752,1,15.5,29.9
0.1,11.8001824082456,9.39944928790418,4.98873332787588,-0.00391478560590564,1,15.5,29.9
0.133333333333333,11.8003965588687,9.56567358282152,4.98471885694957,-0.0040144709263048,1,15.5,29.9
0.166666666666667,11.8007079130068,9.73176265746687,4.98063333222948,-0.00408552472009571,1,15.5,29.9
0.2,11.8011154129494,9.89771444511153,4.97649695174874,-0.00413638048073572,1,15.5,29.9
0.233333333333333,11.8016127852576,10.0635274661388,4.97232406979276,-0.00417288195597632,1,15.5,29.9
0.266666666666667,11.8021901714118,10.2292006692802,4.96812488139101,-0.00419918840175093,1,15.5,29.9
0.3,11.8028331550633,10.3947333217954,4.96390656427132,-0.00421831711969478,1,15.5,29.9
0.333333333333333,11.8035235327321,10.56012493104,4.95967463634205,-0.00423192792926308,1,15.5,29.9
0.366666666666667,11.8042455414337,10.7253751761228,4.95543352200356,-0.00424111433849372,1,15.5,29.9
0.4,11.8049874240438,10.8904838551481,4.95118649536912,-0.00424702663444343,1,15.5,29.9
0.433333333333333,11.8057412223681,11.0554508465253,4.94693591156559,-0.0042505838035316,1,15.5,29.9
0.466666666666667,11.806502372818,11.2202760810911,4.94268342359597,-0.00425248796961508,1,15.5,29.9
0.5,11.8072692302061,11.384959522849,4.93843017116237,-0.00425325243359609,1,15.5,29.9
0.533333333333333,11.8080425688444,11.549501156209,4.93417693176597,-0.00425323939640343,1,15.5,29.9
0.566666666666667,11.8088250631654,11.7139009779189,4.92992423332246,-0.00425269844351561,1,15.5,29.9
0.6,11.8096207359972,11.8781589922845,4.92567243364964,-0.00425179967281242,1,15.5,29.9
0.633333333333333,11.8104343743272,12.0422752086681,4.92142177422081,-0.00425065942883052,1,15.5,29.9
0.666666666666667,11.8112709367913,12.2062496405452,4.91717241514179,-0.00424935907902579,1,15.5,29.9
0.7,11.8121350002827,12.370082305574,4.91292445724226,-0.00424795789952714,1,15.5,29.9
0.733333333333333,11.8130296965655,12.5337732286149,4.90867787241917,-0.00424658482309326,1,15.5,29.9
0.766666666666667,11.8139549354834,12.6973224490417,4.9044326363705,-0.00424523604866422,1,15.5,29.9
0.8,11.8149097212,12.8607300126115,4.90018880333183,-0.00424383303867248,1,15.5,29.9
0.833333333333333,11.815892841147,13.023995968426,4.89594640977554,-0.00424239355628764,1,15.5,29.9
0.866666666666667,11.8169029226342,13.1871203682231,4.89170548096515,-0.00424092881039684,1,15.5,29.9
0.9,11.8179385500201,13.3501032654399,4.88746603713506,-0.00423944383008301,1,15.5,29.9
0.933333333333333,11.818998419757,13.5129447141072,4.88322809797301,-0.00423793916205462,1,15.5,29.9
0.966666666666667,11.8200814956411,13.6756447677393,4.8789916846247,-0.0042364133483046,1,15.5,29.9
1,11.8211859477945,13.8382034846006,4.87475665867966,-0.00423502594504299,1,15.5,29.9
1.03333333333333,11.8223039934595,14.0006209562173,4.87052267617992,-0.00423398249974305,1,15.5,29.9
1.06666666666667,11.8234184696255,14.1628973306896,4.86628956769564,-0.00423310848428127,1,15.5,29.9
1.1,11.8245051831895,14.325032804382,4.86205763334769,-0.00423193434794644,1,15.5,29.9
1.13333333333333,11.825534758899,14.4870276107823,4.85782752641343,-0.00423010693426296,1,15.5,29.9
1.16666666666667,11.8264704961027,14.6488820255962,4.85360049604001,-0.00422703037341332,1,15.5,29.9
1.2,11.82727574976,14.8105963097731,4.84937805379831,-0.00422244224170054,1,15.5,29.9
1.23333333333333,11.8279210410421,14.9721706495173,4.8451609750982,-0.00421707870011101,1,15.5,29.9
1.26666666666667,11.8283913963257,15.133605103777,4.84094851438376,-0.00421246071444248,1,15.5,29.9
1.3,11.8286874661199,15.2948996068259,4.83673864237794,-0.00420987200581635,1,15.5,29.9
1.33333333333333,11.828823552935,15.4560540063368,4.83252898922977,-0.0042096531481679,1,15.5,29.9
1.36666666666667,11.8288229262569,15.6170681215963,4.82831781840376,-0.00421117082601796,1,15.5,29.9
1.4,11.8287140210767,15.7779417898696,4.82410417216991,-0.00421364623384157,1,15.5,29.9
1.43333333333333,11.8285283434848,15.9386748922943,4.81988814188059,-0.00421603028932171,1,15.5,29.9
1.46666666666667,11.8282956079658,16.0992673735449,4.81567074618387,-0.00421739569672397,1,15.5,29.9
1.5,11.8280413345832,16.259719236842,4.81145322142071,-0.0042175247631544,1,15.5,29.9
1.53333333333333,11.8277860074408,16.4200305280421,4.80723670106121,-0.0042165203595026,1,15.5,29.9
1.56666666666667,11.8275440787211,16.5802013200732,4.80302219715684,-0.00421450390437172,1,15.5,29.9
1.6,11.8273221203153,16.7402317010204,4.79881037754809,-0.00421181960874595,1,15.5,29.9
1.63333333333333,11.8271196278783,16.9001217617167,4.79460144211912,-0.00420893542897094,1,15.5,29.9
1.66666666666667,11.8269307018633,17.0598715882842,4.79039530825368,-0.00420613386544044,1,15.5,29.9
1.7,11.8267458060856,17.2194812589709,4.78619177370912,-0.00420353454456812,1,15.5,29.9
1.73333333333333,11.8265534786452,17.3789508431994,4.78199062294582,-0.00420115076329708,1,15.5,29.9
1.76666666666667,11.8263424803145,17.5382804013415,4.77779158304453,-0.00419903990128834,1,15.5,29.9
1.8,11.8261051044978,17.6974699853214,4.77359437485108,-0.00419720819344693,1,15.5,29.9
1.83333333333333,11.8258383066452,17.8565196420847,4.76939869786033,-0.00419567699075607,1,15.5,29.9
1.86666666666667,11.8255459869346,18.0154294181771,4.76520416857117,-0.00419452928916009,1,15.5,29.9
1.9,11.8252395456305,18.1741993659636,4.76101061008119,-0.00419355848997505,1,15.5,29.9
1.93333333333333,11.8249338478905,18.3328295472001,4.75681813813264,-0.00419247194854666,1,15.5,29.9
1.96666666666667,11.8246449876884,18.4913200320902,4.75262700970933,-0.00419112842331248,1,15.5,29.9
2,11.8243878731246,18.6496708949339,4.74843763335311,-0.00418937635622019,1,15.5,29.9
2.03333333333333,11.8241719439072,18.8078822065337,4.74425028018247,-0.00418735317063845,1,15.5,29.9
2.06666666666667,11.824002444665,18.9659540308636,4.74006501243725,-0.00418526774521943,1,15.5,29.9
2.1,11.823879494945,19.1238864230237,4.73588173817834,-0.00418327425891096,1,15.5,29.9
2.13333333333333,11.8237989203944,19.2816794307119,4.73170026488507,-0.00418147329327301,1,15.5,29.9
2.16666666666667,11.8237537174294,19.4393330975035,4.72752040224756,-0.00417986263750691,1,15.5,29.9
2.2,11.8237353786261,19.5968474659987,4.7233420191983,-0.00417838304926565,1,15.5,29.9
2.23333333333333,11.8237350223749,19.754222579977,4.7191650583509,-0.00417696084739916,1,15.5,29.9
2.26666666666667,11.8237443008907,19.9114584853761,4.71498952265016,-0.00417553570073981,1,15.5,29.9
2.3,11.8237560760108,20.0685552303485,4.71081545010125,-0.00417407254890634,1,15.5,29.9
2.33333333333333,11.8237648600612,20.2255128648135,4.70664288858065,-0.0041725615206003,1,15.5,29.9
2.36666666666667,11.8237670261827,20.3823314398717,4.70247187768928,-0.00417101089137706,1,15.5,29.9
2.4,11.8237608027603,20.5390110073051,4.69830244009827,-0.00416943759100796,1,15.5,29.9
2.43333333333333,11.8237460804343,20.6955516192391,4.69413458142075,-0.00416785867751468,1,15.5,29.9
2.46666666666667,11.823724075211,20.8519533279416,4.68996829553029,-0.00416628589046297,1,15.5,29.9
2.5,11.8236969035985,21.0082161857033,4.68580357156572,-0.00416472396457035,1,15.5,29.9
2.53333333333333,11.8236671317832,21.164340244749,4.68164039952643,-0.00416317203929228,1,15.5,29.9
2.56666666666667,11.8236373583713,21.3203255571606,4.67747877291399,-0.00416162661243646,1,15.5,29.9
2.6,11.8236098790366,21.4761721748113,4.67331868856956,-0.00416008434442805,1,15.5,29.9
2.63333333333333,11.8235864635653,21.6318801493256,4.66916014497889,-0.00415854359067147,1,15.5,29.9
2.66666666666667,11.8235682548025,21.787449532071,4.66500314053074,-0.00415700444815581,1,15.5,29.9
2.7,11.8235557789756,21.9428803741839,4.66084767267638,-0.00415546785435517,1,15.5,29.9
2.73333333333333,11.8235490413968,22.0981727266215,4.65669373812959,-0.00415393454678892,1,15.5,29.9
2.76666666666667,11.823547672972,22.2533266402252,4.65254133365079,-0.00415240447880461,1,15.5,29.9
2.8,11.8235510918964,22.4083421657819,4.64839045680607,-0.00415087684471604,1,15.5,29.9
2.83333333333333,11.8235580734667,22.5632193539845,4.64424109604833,-0.00414936075773653,1,15.5,29.9
2.86666666666667,11.8235648462662,22.7179582552424,4.64009323920281,-0.00414785684552754,1,15.5,29.9
2.9,11.823564860282,22.8725589198501,4.63594689405733,-0.00414634514547352,1,15.5,29.9
2.93333333333333,11.8235474259594,23.0270213977949,4.63180212558074,-0.00414476847659095,1,15.5,29.9
2.96666666666667,11.8234963719141,23.1813457378712,4.62765914412971,-0.0041429814510332,1,15.5,29.9
3,11.82338981893,23.335531985128,4.62351839832062,-0.00414074580909141,1,15.5,29.9
3.03333333333333,11.8232041652541,23.4895801761734,4.61938038678355,-0.00413801153706927,1,15.5,29.9
3.06666666666667,11.8229223111306,23.6434903347899,4.61524525643928,-0.00413513034426849,1,15.5,29.9
3.1,11.822535234864,23.7972624704664,4.61111267177048,-0.00413258466879629,1,15.5,29.9
3.13333333333333,11.8220429485748,23.9508965833383,4.60698179080981,-0.00413088096067771,1,15.5,29.9
3.16666666666667,11.8214544658461,24.1043926755693,4.60285160013771,-0.00413019067209408,1,15.5,29.9
3.2,11.8207857359028,24.2577507646192,4.59872121228762,-0.00413038785008801,1,15.5,29.9
3.23333333333333,11.8200591149431,24.410970897076,4.59458997261162,-0.00413123967600004,1,15.5,29.9
3.26666666666667,11.8193019913843,24.5640531577241,4.59045792524366,-0.00413204736796491,1,15.5,29.9
3.3,11.81854140068,24.7169976623616,4.58632592677891,-0.0041319984647501,1,15.5,29.9
3.33333333333333,11.8177995481211,24.8698045397172,4.58219503569376,-0.00413089108514963,1,15.5,29.9
3.36666666666667,11.817092793689,25.0224739154016,4.57806605198942,-0.00412898370433901,1,15.5,29.9
3.4,11.81643143429,25.175005899571,4.57393949204048,-0.00412655994894262,1,15.5,29.9
3.43333333333333,11.8158183648593,25.3274005754753,4.56981550980182,-0.0041239822386574,1,15.5,29.9
3.46666666666667,11.8152501761654,25.4796579992951,4.56569393530258,-0.00412157449923711,1,15.5,29.9
3.5,11.8147189706596,25.6317782062768,4.56157447712324,-0.00411945817934711,1,15.5,29.9
3.53333333333333,11.8142141022043,25.783761218491,4.55745686493408,-0.00411761218915974,1,15.5,29.9
3.56666666666667,11.8137237474809,25.9356070519683,4.55334091739631,-0.00411594753777056,1,15.5,29.9
3.6,11.8132362520659,26.0873157221637,4.54922654998337,-0.00411436741293159,1,15.5,29.9
3.63333333333333,11.8127417476397,26.2388872492789,4.54511373641005,-0.00411281357331905,1,15.5,29.9
3.66666666666667,11.8122348161536,26.3903216664228,4.54100245797236,-0.00411127843769865,1,15.5,29.9
3.7,11.8117152986517,26.5416190224768,4.5368926657465,-0.00410979222585262,1,15.5,29.9
3.73333333333333,11.8111894360868,26.6927793866022,4.53278429815133,-0.00410836759516986,1,15.5,29.9
3.76666666666667,11.8106687057425,26.8438028456998,4.52867735825084,-0.00410693990049715,1,15.5,29.9
3.8,11.8101683904379,26.9946895000581,4.52457196082557,-0.00410539742526872,1,15.5,29.9
3.83333333333333,11.8097077468977,27.1454394624614,4.52046839008856,-0.00410357073700673,1,15.5,29.9
3.86666666666667,11.8093076638814,27.2960528471572,4.51636706528636,-0.00410132480220238,1,15.5,29.9
3.9,11.8089861365134,27.4465297504695,4.51226830351558,-0.00409876177078328,1,15.5,29.9
3.93333333333333,11.8087545994945,27.5968702358405,4.5081720477919,-0.00409625572367478,1,15.5,29.9
3.96666666666667,11.8086161475251,27.7470743296399,4.50407784126746,-0.00409420652444226,1,15.5,29.9
4,11.8085669506153,27.8971420315765,4.4999850695695,-0.00409277169796063,1,15.5,29.9
4.03333333333333,11.8085984193519,28.0470733290924,4.49589318668891,-0.00409188288058271,1,15.5,29.9
4.06666666666667,11.8086992348457,28.1968682101141,4.49180185352994,-0.00409133315897936,1,15.5,29.9
4.1,11.8088570918135,28.3465266719226,4.48771097260424,-0.00409088092569654,1,15.5,29.9
4.13333333333333,11.809060085116,28.4960487255277,4.48362064658464,-0.0040903260195968,1,15.5,29.9
4.16666666666667,11.8092977256278,28.6454343988319,4.47953149903217,-0.00408914755247469,1,15.5,29.9
4.2,11.8095616031848,28.7946838021866,4.47544853091288,-0.00408296811929088,1,15.5,29.9
4.23333333333333,11.8098457297979,28.943797321173,4.4713828721656,-0.00406565874727338,1,15.5,29.9
4.26666666666667,11.8101466033595,29.0927757667854,4.46734854051477,-0.00403433165083378,1,15.5,29.9
4.3,11.8104630363032,29.2416204260136,4.46336000395702,-0.00398853655774811,1,15.5,29.9
4.33333333333333,11.8107957991617,29.3903330496377,4.45943061286174,-0.00392939109528267,1,15.5,29.9
4.36666666666667,11.8111471358258,29.5389157902303,4.45557110467609,-0.00385950818565206,1,15.5,29.9
4.4,11.8115202131737,29.6873710901609,4.4517880206539,-0.0037830840221833,1,15.5,29.9
4.43333333333333,11.8119185695973,29.8357015187225,4.44808260458746,-0.00370541606644714,1,15.5,29.9
4.46666666666667,11.81234562292,29.9839102992306,4.44460517986017,-0.00347742472728285,1,15.5,29.9
4.5,11.8128043278603,30.1320504381653,4.44514800481935,0.000542824959175014,1,15.5,29.9
4.53333333333333,11.8132971035314,30.2803605684787,4.45530885531329,0.0101608504939374,1,15.5,29.9
4.56666666666667,11.8138258038713,30.4291920905194,4.47644547401208,0.0211366186987929,4,15.5,29.9
4.6,11.81439174577,30.578903768644,4.50797104341784,0.0315255694057655,4,15.5,29.9
4.63333333333333,11.8149958499621,30.7298247240174,4.54880905621658,0.0408380127987336,4,15.5,29.9
4.66666666666667,11.8156388395443,30.8822449609995,4.59773258366107,0.0489235274444928,4,15.5,29.9
4.7,11.8163214407986,31.0364136434913,4.65352600786478,0.0557934242037055,4,15.5,29.9
4.73333333333333,11.8170445482087,31.1925406704005,4.71507229627931,0.0615462884145312,4,15.5,29.9
4.76666666666667,11.8178093338221,31.3508013439927,4.78140407312912,0.0663317768498137,4,15.5,29.9
4.8,11.8186172880664,31.5113406694503,4.85167322868491,0.0702691555557884,4,15.5,29.9
4.83333333333333,11.8194701999874,31.6742775419096,4.92516008106003,0.0734868523751198,4,15.5,29.9
4.86666666666667,11.8203700939514,31.83970861953,5.00124373604277,0.0760836549827397,4,15.5,29.9
4.9,11.8213179347755,32.0077116695683,5.07942373719971,0.0781800011569382,4,15.5,29.9
4.93333333333333,11.8223081115197,32.1783508479176,5.15939273771981,0.0799690005200997,4,15.5,29.9
4.96666666666667,11.8233240300845,32.3516838815366,5.24105965068569,0.0816669129658854,4,15.5,29.9
5,11.8243397249914,32.5277677760477,5.32444987495231,0.0833902242666227,4,15.5,29.9
5.03333333333333,11.8253279586151,32.7066611165317,5.4096225417239,0.0851726667715891,4,15.5,29.9
5.06666666666667,11.8262628230288,32.8884240348453,5.49660159714934,0.0869790554254326,4,15.5,29.9
5.1,11.827119498585,33.0731161584225,5.58533307623662,0.0887314790872855,4,15.5,29.9
5.13333333333333,11.827879118807,33.2607941554931,5.6757057415163,0.0903726652796779,4,15.5,29.9
5.16666666666667,11.8285300183462,33.4515107879884,5.7676071783045,0.0919014367882021,4,15.5,29.9
5.2,11.8290705698681,33.645315328771,5.86094264832085,0.0933354700163473,4,15.5,29.9
5.23333333333333,11.8295074066241,33.8422538463524,5.95560959868842,0.0946669503675732,4,15.5,29.9
5.26666666666667,11.8298535687227,34.0423685960247,6.05148763817836,0.0958780394899419,4,15.5,29.9
5.3,11.8301238118753,34.245698527289,6.14850341900541,0.097015780827042,4,15.5,29.9
5.33333333333333,11.8303338921349,34.4522802704258,6.24657464247947,0.0980712234740606,4,15.5,29.9
5.36666666666667,11.8304966982488,34.6621466779781,6.34554400180782,0.0989693593283532,4,15.5,29.9
5.4,11.8306212841298,34.8753238023937,6.44518094060928,0.09963693880146,4,15.5,29.9
5.43333333333333,11.8307132038887,35.0918307080686,6.54529968108391,0.100118740474635,4,15.5,29.9
5.46666666666667,11.8307750327833,35.3116800059165,6.64568847486504,0.10038879378113,4,15.5,29.9
5.5,11.8308069211081,35.5348778069423,6.74619127687128,0.100502802006231,4,15.5,29.9
5.53333333333333,11.8308071227673,35.7614261121597,6.84669323186906,0.100501954997785,4,15.5,29.9
5.56666666666667,11.830772476113,35.9913222269115,6.94703922488318,0.100345993014118,4,15.5,29.9
5.6,11.8306988538798,36.224559408379,7.04714818195192,0.100108957068739,4,15.5,29.9
5.63333333333333,11.8305815867243,36.4611286476428,7.14694772381926,0.099799541867343,4,15.5,29.9
5.66666666666667,11.8304166680818,36.7010180010251,7.24634287255074,0.099395148731479,4,15.5,29.9
5.7,11.8302029429922,36.9442127388253,7.34526211779925,0.0989192452485081,4,15.5,29.9
5.73333333333333,11.8299389819485,37.190695902717,7.44364029550214,0.0983781777028874,4,15.5,29.9
5.76666666666667,11.8296226143605,37.4404483301977,7.54141014329046,0.0977698477883271,4,15.5,29.9
5.8,11.8292513913463,37.6934485951761,7.63850370262791,0.0970935593374476,4,15.5,29.9
5.83333333333333,11.8288228770345,37.9497559735904,7.74194575336217,0.103442050734256,4,15.5,29.9
5.86666666666667,11.8283346785133,38.2096657628654,7.85342962850526,0.111483875143096,4,15.5,29.9
5.9,11.8277845802462,38.4733384657194,7.96693664765847,0.113507019153205,4,15.5,29.9
5.93333333333333,11.8271705681969,38.7407743029164,8.07876259207724,0.111825944418774,4,15.5,29.9
5.96666666666667,11.8264907601684,39.0118788367888,8.18680848189899,0.108045889821751,4,15.5,29.9
6,11.8257433320504,39.2865042488084,8.28989793808746,0.103089456188467,4,15.5,29.9
