Time,x_ego,y_ego,velocity,acceleration,action,x_ped,y_ped
0,11.8,8.9,7,0,1,15.5,29.9
0.0333333333333333,11.8,9.13327037939431,6.99615577953002,-0.00384422046998356,1,15.5,29.9
0.0666666666666667,11.8,9.36640659881126,6.99196947109348,-0.00418630843653833,1,15.5,29.9
0.1,11.8,9.59940075527911,6.98769498718995,-0.00427448390352669,1,15.5,29.9
0.133333333333333,11.8,9.83225378528415,6.9834976545359,-0.00419733265404787,1,15.5,29.9
0.166666666666667,11.8,10.0649678802301,6.97935585456763,-0.00414179996826913,1,15.5,29.9
0.2,11.8,10.2975446186632,6.97525409491249,-0.00410175965514537,1,15.5,29.9
0.233333333333333,11.8,10.5299851399444,6.97118127319767,-0.00407282171482137,1,15.5,29.9
0.266666666666667,11.8,10.7622902687052,6.96712943294736,-0.00405184025031069,1,15.5,29.9
0.3,11.8,10.9944606040335,6.96309287213007,-0.00403656081728965,1,15.5,29.9
0.333333333333333,11.8,11.2264965833863,6.95906750439986,-0.00402536773020401,1,15.5,29.9
0.366666666666667,11.8,11.4583985283897,6.95505040137947,-0.00401710302039238,1,15.5,29.9
0.4,11.8,11.6901666776599,6.95103946463339,-0.00401093674607722,1,15.5,29.9
0.433333333333333,11.8,11.9218012103233,6.94703319054231,-0.00400627409108711,1,15.5,29.9
0.466666666666667,11.8,12.1533022628712,6.94303050173604,-0.00400268880626342,1,15.5,29.9
0.5,11.8,12.3846699412377,6.93903062623031,-0.00399987550573222,1,15.5,29.9
0.533333333333333,11.8,12.6159043294559,6.93503301077307,-0.00399761545723631,1,15.5,29.9
0.566666666666667,11.8,12.8470054958598,6.93103725873891,-0.00399575203416092,1,15.5,29.9
0.6,11.8000066102076,13.0779734975135,6.92704310748425,-0.00399415125465907,1,15.5,29.9
0.633333333333333,11.8000480050804,13.3088083828425,6.9230505292109,-0.0039925782733512,1,15.5,29.9
0.666666666666667,11.8001466616384,13.5395101912074,6.91905954557821,-0.00399098363269701,1,15.5,29.9
0.7,11.8003142779577,13.7700789515007,6.91507001051313,-0.00398953506507205,1,15.5,29.9
0.733333333333333,11.8005549483994,14.0005146830323,6.9110816636706,-0.00398834684253124,1,15.5,29.9
0.766666666666667,11.8008680319094,14.2308173987886,6.90709425428907,-0.00398740938153441,1,15.5,29.9
0.8,11.8012503653879,14.4609871094298,6.90310761678434,-0.00398663750473371,1,15.5,29.9
0.833333333333333,11.8016977403383,14.6910238265537,6.89912168049473,-0.00398593628960153,1,15.5,29.9
0.866666666666667,11.8022057409749,14.9209275646054,6.89513644145337,-0.00398523904136106,1,15.5,29.9
0.9,11.802769297968,15.1506983425939,6.89115183751338,-0.00398460393999045,1,15.5,29.9
0.933333333333333,11.8033793128395,15.3803361898988,6.8871677018955,-0.0039841356178858,1,15.5,29.9
0.966666666666667,11.804020000102,15.6098411542763,6.883183869216,-0.0039838326794932,1,15.5,29.9
1,11.80466579828,15.8392133122913,6.87920019178291,-0.0039836774330908,1,15.5,29.9
1.03333333333333,11.8052772341379,16.0684527811543,6.87521707176297,-0.00398312001994228,1,15.5,29.9
1.06666666666667,11.8058119908124,16.2975596941208,6.87123560880343,-0.00398146295954405,1,15.5,29.9
1.1,11.8062416376797,16.526534150029,6.86725646004204,-0.00397914876139005,1,15.5,29.9
1.13333333333333,11.8065539453608,16.755376193502,6.8632793858751,-0.00397707416693915,1,15.5,29.9
1.16666666666667,11.8067488930966,16.9840858228778,6.85930365846909,-0.00397572740600349,1,15.5,29.9
1.2,11.8068357496188,17.2126630073752,6.85532859195531,-0.00397506651377988,1,15.5,29.9
1.23333333333333,11.8068264148529,17.4411077126534,6.85135387603024,-0.00397471592507603,1,15.5,29.9
1.26666666666667,11.8067326116409,17.6694199136232,6.8473794648575,-0.00397441117273978,1,15.5,29.9
1.3,11.8065650077921,17.8975995984424,6.84340544797358,-0.00397401688391863,1,15.5,29.9
1.33333333333333,11.8063329215736,18.1256467680232,6.83943195132215,-0.00397349665142421,1,15.5,29.9
1.36666666666667,11.8060442826378,18.3535614334621,6.8354590867132,-0.00397286460894986,1,15.5,29.9
1.4,11.8057056438072,18.5813436129759,6.83148693775323,-0.00397214895997156,1,15.5,29.9
1.43333333333333,11.8053221605961,18.8089933291125,6.82751556401338,-0.00397137373985146,1,15.5,29.9
1.46666666666667,11.8048975450192,19.0365106064887,6.82354500981754,-0.0039705541958428,1,15.5,29.9
1.5,11.8044340459,19.2638954700783,6.81957531074462,-0.00396969907291922,1,15.5,29.9
1.53333333333333,11.8039325123399,19.4911479440037,6.81560649611293,-0.00396881463169052,1,15.5,29.9
1.56666666666667,11.8033925728468,19.7182680507805,6.81163858855015,-0.00396790756278342,1,15.5,29.9
1.6,11.8028129263032,19.9452558109782,6.80767160255929,-0.00396698599086065,1,15.5,29.9
1.63333333333333,11.8021925305957,20.1721112444876,6.80370545237486,-0.00396615018442059,1,15.5,29.9
1.66666666666667,11.8015336365931,20.3988343761539,6.79974002397105,-0.00396542840381908,1,15.5,29.9
1.7,11.8008421166246,20.6254252396653,6.79577519840494,-0.00396482556610778,1,15.5,29.9
1.73333333333333,11.8001290937483,20.8518838840305,6.79181090932828,-0.00396428907665669,1,15.5,29.9
1.76666666666667,11.7994103073079,21.0782103757195,6.78784717518734,-0.00396373414093709,1,15.5,29.9
1.8,11.7987069583057,21.3044048018121,6.7838841542888,-0.00396302089854395,1,15.5,29.9
1.83333333333333,11.7980437732443,21.5304672641376,6.77992219498572,-0.00396195930308085,1,15.5,29.9
1.86666666666667,11.7974449875512,21.7563978637739,6.77596172850318,-0.00396046648253989,1,15.5,29.9
1.9,11.7969282970434,21.9821966778017,6.77200295896718,-0.00395876953600283,1,15.5,29.9
1.93333333333333,11.7965064825591,22.207863757266,6.76804581749088,-0.00395714147629977,1,15.5,29.9
1.96666666666667,11.7961837575317,22.4333991178553,6.7640899578237,-0.00395585966717338,1,15.5,29.9
2,11.7959575722372,22.6588027497258,6.76013497897844,-0.00395497884526197,1,15.5,29.9
2.03333333333333,11.7958215335813,22.8840746320964,6.75618059357078,-0.00395438540765891,1,15.5,29.9
2.06666666666667,11.7957674815821,23.1092147443062,6.75222666803765,-0.00395392553313112,1,15.5,29.9
2.1,11.7957868377099,23.3342230722473,6.74827318940647,-0.00395347863118456,1,15.5,29.9
2.13333333333333,11.7958714147097,23.5590996108384,6.74432021228905,-0.00395297711741449,1,15.5,29.9
2.16666666666667,11.7960138775929,23.7838443647787,6.74036793956301,-0.00395227272603726,1,15.5,29.9
2.2,11.7962080018989,24.0084573761267,6.73641876258531,-0.00394917697770758,1,15.5,29.9
2.23333333333333,11.7964488170975,24.2329388429516,6.73247939847417,-0.00393936411113494,1,15.5,29.9
2.26666666666667,11.7967326718093,24.457289240622,6.7285593195341,-0.00392007894007307,1,15.5,29.9
2.3,11.7970572248049,24.6815093745026,6.72466848798049,-0.00389083155360836,1,15.5,29.9
2.33333333333333,11.7974213543208,24.9056003652907,6.7208156892669,-0.00385279871358968,1,15.5,29.9
2.36666666666667,11.7978249838164,25.1295635833721,6.71700683545767,-0.00380885380923424,1,15.5,29.9
2.4,11.7982696498821,25.3534005276362,6.71324402170108,-0.00376281375658571,1,15.5,29.9
2.43333333333333,11.7987600704169,25.5771168378754,6.7100972674698,-0.0031467542312793,1,15.5,29.9
2.46666666666667,11.7993013846017,25.8007864802435,6.71107998793312,0.000982720463313491,1,15.5,29.9
2.5,11.7999001920827,26.0245919494459,6.71841130757786,0.00733131964473976,1,15.5,29.9
2.53333333333333,11.8005613940037,26.2487538066719,6.73247618378788,0.0140648762100266,1,15.5,29.9
2.56666666666667,11.8012877797594,26.4734946361229,6.75311452223462,0.0206383384467337,4,15.5,29.9
2.6,11.8020806515081,26.6990271402613,6.77989438209453,0.0267798598599107,4,15.5,29.9
2.63333333333333,11.8029395753943,26.925546351231,6.81223541240635,0.0323410303118274,4,15.5,29.9
2.66666666666667,11.8038601513576,27.1532281922574,6.84957289919789,0.0373374867915359,4,15.5,29.9
2.7,11.8048350562019,27.3822297647585,6.89133554071227,0.0417626415143832,4,15.5,29.9
2.73333333333333,11.8058556667553,27.6126890346487,6.93695358806256,0.045618047350283,4,15.5,29.9
2.76666666666667,11.8069129816787,27.8447254661896,6.98588719671302,0.0489336086504668,4,15.5,29.9
2.8,11.8079991527958,28.0784410719339,7.03763012062351,0.0517429239104841,4,15.5,29.9
2.83333333333333,11.8091103965513,28.3139215951607,7.09171381674072,0.054083696117214,4,15.5,29.9
2.86666666666667,11.8102463692398,28.5512378300413,7.14771183920888,0.0559980224681631,4,15.5,29.9
2.9,11.8114088132333,28.7904471252914,7.2052447048759,0.057532865667012,4,15.5,29.9
2.93333333333333,11.8126005471589,29.0315949239173,7.26397690742202,0.0587322025461203,4,15.5,29.9
2.96666666666667,11.8138248052596,29.2747161778181,7.32361491216012,0.0596380047381002,4,15.5,29.9
3,11.8150848604117,29.5198367742864,7.3839084154416,0.0602935032814811,4,15.5,29.9
3.03333333333333,11.8163838376078,29.7669749528336,7.44464805013511,0.0607396346935136,4,15.5,29.9
3.06666666666667,11.8177246303935,30.0161425415515,7.50565720665185,0.0610091565167385,4,15.5,29.9
3.1,11.8191098584391,30.2673460112927,7.5667921344162,0.0611349277643507,4,15.5,29.9
3.13333333333333,11.8205418355609,30.5205876153783,7.6279425804667,0.0611504460504957,4,15.5,29.9
3.16666666666667,11.8220225400663,30.7758663899809,7.68902459768426,0.0610820172175641,4,15.5,29.9
3.2,11.8235526728714,31.0331789295499,7.74997434042989,0.0609497427456294,4,15.5,29.9
3.23333333333333,11.8251286872738,31.2925199942652,7.81074341043419,0.0607690700042971,4,15.5,29.9
3.26666666666667,11.8267408954239,31.553882972099,7.87129451127809,0.0605511008439068,4,15.5,29.9
3.3,11.82836340597,31.8172601821881,7.93159319122229,0.060298679944192,4,15.5,29.9
3.33333333333333,11.8299499040901,32.082642923789,7.991606129504,0.0600129382817176,4,15.5,29.9
3.36666666666667,11.8314451728169,32.3500214873918,8.05130443737476,0.0596983078707574,4,15.5,29.9
3.4,11.8328003458577,32.6193851226495,8.11065994956442,0.0593555121896596,4,15.5,29.9
3.43333333333333,11.8339941411184,32.8907220303139,8.16965075439116,0.0589908048267418,4,15.5,29.9
3.46666666666667,11.8350321477729,33.1640193741685,8.22823628750735,0.0585855331161866,4,15.5,29.9
3.5,11.8359403406025,33.4392626473243,8.28637663248873,0.0581403449813784,4,15.5,29.9
3.53333333333333,11.8367491408816,33.7164369829389,8.34408586178479,0.0577092292960657,4,15.5,29.9
3.56666666666667,11.8374856477161,33.9955286645302,8.4014183822513,0.0573325204665043,4,15.5,29.9
3.6,11.8381664699227,34.2765264791925,8.45845690959074,0.0570385273394418,4,15.5,29.9
3.63333333333333,11.8387999216543,34.5594216278771,8.5152585970926,0.05680168750186,4,15.5,29.9
3.66666666666667,11.839389819037,34.8442067921792,8.57185471297868,0.0565961158860784,4,15.5,29.9
3.7,11.8399380130999,35.1308751311769,8.62824011985931,0.0563854068806293,4,15.5,29.9
3.73333333333333,11.8404456718544,35.4194192966226,8.68439857243251,0.056158452573202,4,15.5,29.9
3.76666666666667,11.8409136296321,35.709831741887,8.7403349472256,0.0559363747930952,4,15.5,29.9
3.8,11.8413422194073,36.0021052690269,8.79606111013203,0.0557261629064278,4,15.5,29.9
3.83333333333333,11.8417309640527,36.2962329530055,8.85158105590261,0.0555199457705751,4,15.5,29.9
3.86666666666667,11.8420783835845,36.5922079172897,8.9068946672588,0.0553136113561976,4,15.5,29.9
3.9,11.8423820309359,36.8900232696983,8.96200131757915,0.0551066503203472,4,15.5,29.9
3.93333333333333,11.8426387466976,37.1896720973919,9.016899968853,0.054898651273847,4,15.5,29.9
3.96666666666667,11.8428450477197,37.4911473279378,9.0715809986714,0.0546810298184024,4,15.5,29.9
4,11.842997538988,37.7944415690673,9.12603852216858,0.0544575234971774,4,15.5,29.9
4.03333333333333,11.8430932521571,38.099547324606,9.18026940854865,0.0542308863800738,4,15.5,29.9
4.06666666666667,11.8431298496776,38.406456916525,9.23426690964124,0.0539975010925868,4,15.5,29.9
4.1,11.8431056788927,38.7151625409182,9.28803423619519,0.053767326553956,4,15.5,29.9
4.13333333333333,11.8430196972292,39.0256569322162,9.34159864117954,0.0535644049843427,4,15.5,29.9
4.16666666666667,11.842871311641,39.3379337954372,9.39498831760015,0.0533896764206148,4,15.5,29.9
