Time,x_ego,y_ego,velocity,acceleration,action,x_ped,y_ped
0,11.8,8.9,7,0,1,15.5,29.9
0.0333333333333333,11.7999967069701,9.1332703793903,6.9961557848882,-0.003844215111795,1,15.5,29.9
0.0666666666666667,11.799976102465,9.36640659865409,6.99196953026326,-0.00418625462494848,1,15.5,29.9
0.1,11.7999270346132,9.59940075386442,6.98769518926083,-0.00427434100243129,1,15.5,29.9
0.133333333333333,11.799843720538,9.83225377899641,6.98349807801611,-0.00419711124471522,1,15.5,29.9
0.166666666666667,11.7997241435068,10.0649678613223,6.97935653271929,-0.00414154529682076,1,15.5,29.9
0.2,11.7995686166783,10.297544574234,6.97525501348861,-0.00410151923067925,1,15.5,29.9
0.233333333333333,11.7993786828593,10.5299850517457,6.97118238778619,-0.00407262570241507,1,15.5,29.9
0.266666666666667,11.7991563866005,10.7622901136364,6.96713068937602,-0.0040516984101755,1,15.5,29.9
0.3,11.7989038660409,10.9944603550224,6.96309422053587,-0.00403646884015263,1,15.5,29.9
0.333333333333333,11.7986231689303,11.2264962103739,6.95906890521656,-0.00402531531930528,1,15.5,29.9
0.366666666666667,11.7983153527532,11.4583979986182,6.95505187066937,-0.00401703454719549,1,15.5,29.9
0.4,11.79797857097,11.6901659537813,6.95104104430971,-0.00401082635965988,1,15.5,29.9
0.433333333333333,11.7976107220884,11.9218002494018,6.94703493945817,-0.00400610485154029,1,15.5,29.9
0.466666666666667,11.7972066176764,12.153301012132,6.94303258230257,-0.00400235715559205,1,15.5,29.9
0.5,11.7967562797662,12.3846683299116,6.93903327669833,-0.00399930560424355,1,15.5,29.9
0.533333333333333,11.7962491967049,12.6159022627084,6.93503647772143,-0.00399679897690142,1,15.5,29.9
0.566666666666667,11.7956757131103,12.8470028492464,6.93104178920842,-0.00399468851300444,1,15.5,29.9
0.6,11.7950277582208,13.0779701120602,6.92704883216239,-0.00399295704603819,1,15.5,29.9
0.633333333333333,11.7943014784892,13.3088040660627,6.92305722993902,-0.00399160222336459,1,15.5,29.9
0.666666666666667,11.7934964436129,13.5395047232248,6.91906670753674,-0.00399052240228581,1,15.5,29.9
0.7,11.7926142316521,13.7700720952825,6.9150770935017,-0.0039896140350324,1,15.5,29.9
0.733333333333333,11.7916574450517,14.0005061955347,6.91108830109926,-0.00398879240244465,1,15.5,29.9
0.766666666666667,11.7906291016106,14.2308070397561,6.90710029951838,-0.00398800158087642,1,15.5,29.9
0.8,11.7895322936933,14.4609746463966,6.90311308724831,-0.00398721227007126,1,15.5,29.9
0.833333333333333,11.7883700043899,14.6910090362728,6.89912667393201,-0.00398641331629612,1,15.5,29.9
0.866666666666667,11.7871449940775,14.9209102319191,6.89514107121165,-0.0039856027203653,1,15.5,29.9
0.9,11.7858589164409,15.1506782535665,6.8911564033835,-0.00398466782815277,1,15.5,29.9
0.933333333333333,11.7845104389232,15.3803131095758,6.88717271905565,-0.00398368432784491,1,15.5,29.9
0.966666666666667,11.7830975981923,15.6098148031972,6.88319005833447,-0.00398266072118236,1,15.5,29.9
1,11.7816148637745,15.8391833177556,6.87920865971781,-0.00398139861666191,1,15.5,29.9
1.03333333333333,11.7800509007898,16.0684186006559,6.87522876904446,-0.00397989067335125,1,15.5,29.9
1.06666666666667,11.7783903208451,16.2975205643557,6.87125054583709,-0.00397822320736374,1,15.5,29.9
1.1,11.7766165586737,16.5264890953151,6.86727394821473,-0.0039765976223638,1,15.5,29.9
1.13333333333333,11.7747159565927,16.7553240743794,6.86329876883459,-0.00397517938014058,1,15.5,29.9
1.16666666666667,11.7726789406537,16.984025387019,6.85932463107112,-0.003974137763473,1,15.5,29.9
1.2,11.770501785869,17.2125929420332,6.85535108159808,-0.00397354947303885,1,15.5,29.9
1.23333333333333,11.7681851900849,17.4410266735067,6.85137783211755,-0.00397324948052624,1,15.5,29.9
1.26666666666667,11.7657324154223,17.6693265374199,6.84740476409675,-0.00397306802080166,1,15.5,29.9
1.3,11.763147980508,17.8974925080554,6.84343188975916,-0.00397287433759264,1,15.5,29.9
1.33333333333333,11.7604368254879,18.1255245742606,6.83945929668498,-0.00397259307417119,1,15.5,29.9
1.36666666666667,11.7576038190095,18.3534227356671,6.83548709962905,-0.00397219705593432,1,15.5,29.9
1.4,11.7546526502447,18.5811869907562,6.8315156360358,-0.00397146359325173,1,15.5,29.9
1.43333333333333,11.7515821735884,18.8088172949523,6.82754552393417,-0.00397011210162734,1,15.5,29.9
1.46666666666667,11.748382823,19.0363135087895,6.82357773717611,-0.00396778675805809,1,15.5,29.9
1.5,11.7450341099971,19.2636753476404,6.81961298437217,-0.00396475280394615,1,15.5,29.9
1.53333333333333,11.7415100203284,19.4909024162736,6.81565174198179,-0.00396124239037565,1,15.5,29.9
1.56666666666667,11.7377804947491,19.717994207467,6.81169426488422,-0.00395747709757011,1,15.5,29.9
1.6,11.7338172633119,19.94495015921,6.80774009033098,-0.00395417455324587,1,15.5,29.9
1.63333333333333,11.7295994760121,20.1717697296997,6.80378778503418,-0.00395230529679402,1,15.5,29.9
1.66666666666667,11.7251190238851,20.3984524959801,6.79983521587364,-0.00395256916054088,1,15.5,29.9
1.7,11.7203802636008,20.624998199327,6.79588063704512,-0.00395457882851691,1,15.5,29.9
1.73333333333333,11.7153956648874,20.8514067312109,6.79192325525233,-0.00395738179279004,1,15.5,29.9
1.76666666666667,11.7101825356628,21.0776781185202,6.7879626978002,-0.00396055745213708,1,15.5,29.9
1.8,11.7047615045763,21.3038125204786,6.78399974197362,-0.00396295582657391,1,15.5,29.9
1.83333333333333,11.6991499035231,21.5298101133345,6.78003555674574,-0.00396418522787911,1,15.5,29.9
1.86666666666667,11.6933636064517,21.7556711070401,6.77607074868032,-0.00396480806541888,1,15.5,29.9
1.9,11.6874166395958,21.9813957231087,6.77210618903099,-0.00396455964933917,1,15.5,29.9
1.93333333333333,11.6813191418275,22.206984135372,6.76814233854514,-0.00396385048584236,1,15.5,29.9
1.96666666666667,11.6750804773191,22.4324365205092,6.76417915338106,-0.00396318516408645,1,15.5,29.9
2,11.6687095995945,22.6577530613412,6.76021667894511,-0.00396247443595055,1,15.5,29.9
2.03333333333333,11.6622136391697,22.8829339106572,6.75625534895916,-0.00396132998595089,1,15.5,29.9
2.06666666666667,11.6555959061211,23.1079791358712,6.7522953593777,-0.00395998958145682,1,15.5,29.9
2.1,11.648859193827,23.332888792201,6.74833655499779,-0.00395880437991103,1,15.5,29.9
2.13333333333333,11.6420056814536,23.5576629204228,6.744379158782,-0.00395739621578617,1,15.5,29.9
2.16666666666667,11.6350351960686,23.7823014997839,6.74042319455121,-0.00395596423078892,1,15.5,29.9
2.2,11.6279494299226,24.0068045579088,6.73646809370284,-0.00395510084836825,1,15.5,29.9
2.23333333333333,11.6207567946796,24.2311723139641,6.73251278939181,-0.00395530431103452,1,15.5,29.9
2.26666666666667,11.613475855015,24.4554052970158,6.72855675200626,-0.00395603738554762,1,15.5,29.9
2.3,11.6061305813916,24.6795042328608,6.72460006479795,-0.00395668720831654,1,15.5,29.9
2.33333333333333,11.5987499568624,24.9034700400537,6.72064309264568,-0.00395697215226409,1,15.5,29.9
2.36666666666667,11.5913641169969,25.1273037145446,6.71668695802704,-0.00395613461863853,1,15.5,29.9
2.4,11.5839969630707,25.3510060921266,6.71273274422254,-0.003954213804505,1,15.5,29.9
2.43333333333333,11.5766645559922,25.5745777751742,6.70878113975786,-0.00395160446467724,1,15.5,29.9
2.46666666666667,11.5693717630665,25.7980190099876,6.7048322747361,-0.00394886502175673,1,15.5,29.9
2.5,11.5621151043268,26.0213297636531,6.70088576361109,-0.00394651112501521,1,15.5,29.9
2.53333333333333,11.5548864454734,26.2445098386659,6.69694112317994,-0.00394464043115317,1,15.5,29.9
2.56666666666667,11.5476755862073,26.4675589584454,6.69299796243739,-0.00394316074254419,1,15.5,29.9
2.6,11.5404719035912,26.6904768237723,6.68905602205809,-0.00394194037930529,1,15.5,29.9
2.63333333333333,11.5332653085065,26.9132631463451,6.68511514876026,-0.00394087329782433,1,15.5,29.9
2.66666666666667,11.5260467718122,27.1359176673847,6.681175256946,-0.0039398918142588,1,15.5,29.9
2.7,11.5188086159952,27.3584401679564,6.67723629829495,-0.00393895865105431,1,15.5,29.9
2.73333333333333,11.5115446869295,27.580830475152,6.67329824242041,-0.00393805587454032,1,15.5,29.9
2.76666666666667,11.5042504484707,27.8030884658001,6.66936106586235,-0.00393717655805403,1,15.5,29.9
2.8,11.4969229966544,28.0252140677041,6.66542474652795,-0.00393631933440641,1,15.5,29.9
2.83333333333333,11.4895617407,28.2472072825602,6.66148920699318,-0.00393553953476999,1,15.5,29.9
2.86666666666667,11.4821699562315,28.4690682432743,6.65755499679046,-0.00393421020271933,1,15.5,29.9
2.9,11.4747529073506,28.6907972028396,6.65362468232705,-0.00393031446340419,1,15.5,29.9
2.93333333333333,11.4673204541979,28.9123946857163,6.64970262244734,-0.00392205987970939,1,15.5,29.9
2.96666666666667,11.4598821288179,29.1338613756293,6.64579427452376,-0.00390834792358685,1,15.5,29.9
3,11.4524502416001,29.3551982385596,6.6419053854466,-0.00388888907716201,1,15.5,29.9
3.03333333333333,11.4450360137949,29.5764063922385,6.63804137202207,-0.00386401342452825,1,15.5,29.9
3.06666666666667,11.4376465880796,29.7974869812953,6.63420665442134,-0.00383471760072851,1,15.5,29.9
3.1,11.4302881143997,30.0184412438105,6.63040452737767,-0.00380212704366656,1,15.5,29.9
3.13333333333333,11.4229664560737,30.2392704968134,6.62663711735933,-0.00376741001833913,1,15.5,29.9
3.16666666666667,11.4156864796862,30.459976072006,6.62290528869038,-0.0037318286689505,1,15.5,29.9
3.2,11.4084494087823,30.6805594368855,6.61926480287794,-0.00364048581244703,1,15.5,29.9
3.23333333333333,11.4012528324562,30.9010415383094,6.61726608153556,-0.00199872134237555,1,15.5,29.9
3.26666666666667,11.3940898967066,31.1215277332593,6.61975508432584,0.00248900279027886,1,15.5,29.9
3.3,11.386950992477,31.3421871779085,6.62764050610925,0.00788542178341345,1,15.5,29.9
3.33333333333333,11.3798270025688,31.563198073773,6.64073198533282,0.0130914792235624,1,15.5,29.9
3.36666666666667,11.3727121521454,31.7847263658825,6.65856485571386,0.0178328703810458,1,15.5,29.9
3.4,11.3656028414642,32.0069210913582,6.68059169205429,0.0220268363404257,4,15.5,29.9
3.43333333333333,11.3585032099238,32.2299123355311,6.70621005916897,0.0256183671146815,4,15.5,29.9
3.46666666666667,11.3514274518782,32.4538105479505,6.73485395146812,0.0286438922991508,4,15.5,29.9
3.5,11.3443995727619,32.6787095695132,6.7660669947351,0.031213043266983,4,15.5,29.9
3.53333333333333,11.3374480792517,32.9046888612528,6.79942977042733,0.0333627756922272,4,15.5,29.9
3.56666666666667,11.3305975203194,33.1318142514382,6.83455584516476,0.0351260747374322,4,15.5,29.9
3.6,11.3238666760962,33.3601391437488,6.87110037624787,0.0365445310831056,4,15.5,29.9
3.63333333333333,11.3172672271737,33.5897059479052,6.90876373378276,0.0376633575348935,4,15.5,29.9
3.66666666666667,11.3108050236048,33.8205476497412,6.9472913229743,0.0385275891915384,4,15.5,29.9
3.7,11.3044796340462,34.0526892771365,6.98647093080004,0.0391796078257363,4,15.5,29.9
3.73333333333333,11.298286557059,34.2861493288306,7.02612875183483,0.0396578210347913,4,15.5,29.9
3.76666666666667,11.2922194708266,34.5209410437708,7.06612444642693,0.0399956945921041,4,15.5,29.9
3.8,11.2862716557516,34.7570734721525,7.10634602262103,0.0402215761941029,4,15.5,29.9
3.83333333333333,11.2804368089033,34.9945524428151,7.14671362504762,0.0403676024265893,4,15.5,29.9
3.86666666666667,11.2747094671025,35.2333817977807,7.18718158271316,0.0404679576655349,4,15.5,29.9
3.9,11.2690852389924,35.473564025048,7.22770981118447,0.0405282284713113,4,15.5,29.9
3.93333333333333,11.2635609475425,35.7151003479415,7.26826062212737,0.0405508109428991,4,15.5,29.9
3.96666666666667,11.2581347079254,35.957990816971,7.3087982375538,0.0405376154264312,4,15.5,29.9
4,11.2528050684384,36.2022341185181,7.34927434931027,0.0404761117564663,4,15.5,29.9
4.03333333333333,11.2475689800254,36.4478273499081,7.38964921473043,0.0403748654201674,4,15.5,29.9
4.06666666666667,11.2424244237192,36.6947666123795,7.42989981479696,0.040250600066523,4,15.5,29.9
4.1,11.237367183323,36.9430473863389,7.47001354080599,0.0401137260090332,4,15.5,29.9
4.13333333333333,11.2323888154494,37.1926647526454,7.50998157652224,0.039968035716246,4,15.5,29.9
4.16666666666667,11.2274800191869,37.443613252644,7.54977683660239,0.0397952600801501,4,15.5,29.9
4.2,11.2226306916636,37.695886148847,7.5893521461216,0.0395753095192148,4,15.5,29.9
4.23333333333333,11.217835257586,37.9494748954317,7.62863601299157,0.0392838668699653,4,15.5,29.9
4.26666666666667,11.2130892213746,38.2043678271176,7.66751304949865,0.0388770365070883,4,15.5,29.9
4.3,11.2083887457684,38.4605493614086,7.70587337494898,0.0383603254503297,4,15.5,29.9
4.33333333333333,11.2037335166703,38.7180011431963,7.74366319321322,0.0377898182642324,4,15.5,29.9
4.36666666666667,11.1991259281109,38.9767041540957,7.78088656130608,0.0372233680928664,4,15.5,29.9
4.4,11.1945697241193,39.2366399361319,7.81756762705012,0.0366810657440348,4,15.5,29.9
