Time,x_ego,y_ego,velocity,acceleration,action,x_ped,y_ped
0,11.8,8.9,7,0,1,15.5,29.9
0.0333333333333333,11.8000083169702,9.13327037936872,6.99615581370883,-0.00384418629117,1,15.4502170138889,29.9
0.0666666666666667,11.8000603563002,9.36640659780872,6.99196984852573,-0.00418596518309755,1,15.4008680555556,29.9
0.1,11.8001834400801,9.59940074634088,6.98769623391195,-0.00427361461378517,1,15.351953125,29.9
0.133333333333333,11.8003885827227,9.8322537464538,6.98350015474738,-0.00419607916456499,1,15.3034722222222,29.9
0.166666666666667,11.8006780201157,10.0649677662393,6.97935971422558,-0.00414044052179996,1,15.2554253472222,29.9
0.2,11.8010494788412,10.2975443564997,6.97525917430416,-0.00410053992142689,1,15.2078125,29.9
0.233333333333333,11.8014985451001,10.5299846289271,6.97118730126071,-0.0040718730434488,1,15.1606336805556,29.9
0.266666666666667,11.8020201355013,10.7622893838727,6.9671361160086,-0.00405118525210302,1,15.1138888888889,29.9
0.3,11.8026092460349,10.9944592011255,6.96309995820763,-0.00403615780097599,1,15.067578125,29.9
0.333333333333333,11.803261230057,11.226494504019,6.95907480353061,-0.00402515467701381,1,15.0217013888889,29.9
0.366666666666667,11.8039718451112,11.4583956045963,6.95505777923668,-0.00401702429393502,1,14.9762586805556,29.9
0.4,11.804737245023,11.6901627353978,6.9510468269708,-0.00401095226588044,1,14.93125,29.9
0.433333333333333,11.805554011492,11.9217960717854,6.94704046950715,-0.00400635746364397,1,14.8866753472222,29.9
0.466666666666667,11.8064190480154,12.1532089143344,6.93782775178411,-0.00921271772304788,1,14.8425347222222,29.9
0.5,11.8073292154673,12.3840551381125,6.91305421651877,-0.0247735352653367,3,14.798828125,29.9
0.533333333333333,11.8082815449979,12.6138447757661,6.87444361901725,-0.038610597501517,3,14.7555555555556,29.9
0.566666666666667,11.8092740175604,12.8422608564532,6.83065195383455,-0.0437916651827051,3,14.7127170138889,29.9
0.6,11.8103053966999,13.0691016232705,6.77993636359162,-0.0507155902429259,3,14.6703125,29.9
0.633333333333333,11.8113744157601,13.2940501849818,6.71713182797152,-0.0628045356200975,3,14.6283420138889,29.9
0.666666666666667,11.8124797070021,13.5167323019967,6.64396244778997,-0.0731693801815574,3,14.5868055555556,29.9
0.7,11.8136202707022,13.7369176716538,6.56734032988023,-0.0766221179097339,3,14.545703125,29.9
0.733333333333333,11.8147952499777,13.9544912081266,6.48726650140427,-0.0800738284759639,3,14.5050347222222,29.9
0.766666666666667,11.816003537824,14.1693669244565,6.40548573526975,-0.081780766134516,3,14.4648003472222,29.9
0.8,11.8172437384186,14.381487924962,6.32199854900902,-0.0834871862607294,3,14.425,29.9
0.833333333333333,11.8185139401092,14.5907682687682,6.2350614233271,-0.0869371256819269,3,14.3856336805556,29.9
0.866666666666667,11.8198114915044,14.797035203949,6.14120887019029,-0.0938525531368049,3,14.3467013888889,29.9
0.9,11.8211334717446,15.00011637336,6.04392965021464,-0.0972792199756523,3,14.308203125,29.9
0.933333333333333,11.8224772152328,15.1999259171811,5.94492467499215,-0.0990049752224875,3,14.2701388888889,29.9
0.966666666666667,11.8238399992589,15.3963779936464,5.84249403297766,-0.10243064201449,3,14.2325086805556,29.9
1,11.8252191213639,15.5893867785222,5.7383386153743,-0.104155417603367,3,14.1953125,29.9
1.03333333333333,11.826612094385,15.7788951637954,5.6324806191901,-0.105857996184191,3,14.1585503472222,29.9
1.06666666666667,11.8280166788942,15.9648751171981,5.52664252658496,-0.105838092605146,3,14.1222222222222,29.9
1.1,11.829430708166,16.1472986113789,5.41910236288416,-0.107540163700795,3,14.086328125,29.9
1.13333333333333,11.8308518871216,16.3261085586623,5.30983858903641,-0.109263773847751,3,14.0508680555556,29.9
1.16666666666667,11.8322787643745,16.5012765753127,5.20059543742304,-0.109243151613373,3,14.0158420138889,29.9
1.2,11.8337122575374,16.6728033297305,5.09137294502175,-0.109222492401285,3,13.98125,29.9
1.23333333333333,11.8351530160351,16.8407185556878,4.98391489036723,-0.10745805465452,3,13.9470920138889,29.9
1.26666666666667,11.8366004084928,17.0050229217832,4.87473305876334,-0.109181831603897,3,13.9133680555556,29.9
1.3,11.8380533333305,17.1656880302547,4.76557139583137,-0.109161662931964,3,13.9133680555556,29.9
1.33333333333333,11.8395122928722,17.3227145354985,4.65642974197007,-0.109141653861303,3,13.9133680555556,29.9
1.36666666666667,11.8409769827377,17.4761020614736,4.5472177402331,-0.109212001736969,3,13.9133680555556,29.9
1.4,11.8424458514906,17.6258467933325,4.43788403477028,-0.109333705462826,3,13.9133680555556,29.9
1.43333333333333,11.8439164300168,17.7719454933291,4.32847423280943,-0.109409801960843,3,13.9133680555556,29.9
1.46666666666667,11.8453853938251,17.9143675225699,4.21729886931369,-0.111175363495746,3,13.9133680555556,29.9
1.5,11.8468487507294,18.0531118835546,4.10782569447338,-0.109473174840311,3,13.9133680555556,29.9
1.53333333333333,11.8483007807475,18.1882069616487,3.99834911878084,-0.109476575692534,3,13.9133680555556,29.9
1.56666666666667,11.8497350902463,18.319624214568,3.88715892446175,-0.111190194319096,3,13.9133680555556,29.9
1.6,11.8511435972411,18.447277688396,3.77251987253811,-0.11463905192364,3,13.9133680555556,29.9
1.63333333333333,11.8525176034899,18.5710526247222,3.65443868038095,-0.11808119215716,3,13.9133680555556,29.9
1.66666666666667,11.8538500871555,18.6908057406601,3.53119841960251,-0.123240260778438,3,13.9133680555556,29.9
1.7,11.8551362777044,18.8063942479178,3.40454723632929,-0.126651183273217,3,13.9133680555556,29.9
1.73333333333333,11.8563738526359,18.9177328615681,3.27618866416089,-0.128358572168405,3,13.9133680555556,29.9
1.76666666666667,11.8575625667366,19.0247937725506,3.14786893353219,-0.128319730628694,3,13.9133680555556,29.9
1.8,11.8587033194284,19.127549584521,3.01786739376073,-0.130001539771465,3,13.9133680555556,29.9
1.83333333333333,11.8597977545379,19.2259729378337,2.88790734586785,-0.129960047892874,3,13.9133680555556,29.9
1.86666666666667,11.8608484992013,19.3200651979059,2.7579895053278,-0.129917840540053,3,13.9133680555556,29.9
1.9,11.8618594094355,19.4098277366153,2.62811428033255,-0.12987522499525,3,13.9133680555556,29.9
1.93333333333333,11.8628339015068,19.4952619405285,2.49828183549949,-0.12983244483306,3,13.9133680555556,29.9
1.96666666666667,11.863774548679,19.5763979136015,2.37021433957211,-0.128067495927383,3,13.9133680555556,29.9
2,11.8646822966437,19.6532370691436,2.24046635379374,-0.129747985778364,3,13.9133680555556,29.9
2.03333333333333,11.8655564826872,19.7257548974218,2.11107324171888,-0.129393112074864,3,13.9133680555556,29.9
2.06666666666667,11.8663958675992,19.7939833362564,1.98331337858748,-0.127759863131402,3,13.9133680555556,29.9
2.1,11.867198753088,19.8579924111781,1.85795523035351,-0.125358148233972,3,13.9133680555556,29.9
2.13333333333333,11.8679630565261,19.9178655905248,1.73515785118533,-0.122797379168173,3,13.9133680555556,29.9
2.16666666666667,11.868686497109,19.9736880380993,1.6148856179485,-0.120272233236828,3,13.9133680555556,29.9
2.2,11.8693671222814,20.0255717493589,1.49881497406018,-0.116070643888321,3,13.9133680555556,29.9
2.23333333333333,11.8700029116889,20.0735984937828,1.38344021892414,-0.115374755136038,3,13.9133680555556,29.9
2.26666666666667,11.8705919068874,20.1178193349242,1.27043814335992,-0.113002075564223,3,13.9133680555556,29.9
2.3,11.8711328950077,20.1583124267417,1.15974562866473,-0.110692514695194,3,13.9133680555556,29.9
2.33333333333333,11.8716251233142,20.1951538077246,1.05131803674944,-0.108427591915291,3,13.9133680555556,29.9
2.36666666666667,11.8720683069391,20.2284198491002,0.945227164266811,-0.106090872482626,3,13.9133680555556,29.9
2.4,11.8724626134932,20.2581901996304,0.84156712289041,-0.103660041376401,3,13.9133680555556,29.9
2.43333333333333,11.8728085734189,20.2845454510756,0.740280480675693,-0.101286642214717,3,13.9133680555556,29.9
2.46666666666667,11.8731069567857,20.3075624559741,0.641237346362258,-0.0990431343134354,3,13.9133680555556,29.9
2.5,11.8733587070763,20.3273149310987,0.544396942670265,-0.0968404036919923,3,13.9133680555556,29.9
2.53333333333333,11.8735649114668,20.343876941434,0.449798351949646,-0.0945985907206197,3,13.9133680555556,29.9
2.56666666666667,11.8737267469226,20.3573234363567,0.357443466648662,-0.0923548853009835,3,13.9133680555556,29.9
2.6,11.8738454058779,20.3677281014477,0.267259315161947,-0.0901841514867148,3,13.9133680555556,29.9
2.63333333333333,11.8739220378493,20.3751618740219,0.179170836867497,-0.0880884782944509,3,13.9133680555556,29.9
2.66666666666667,11.8739580547436,20.3797238725701,0.0949765343028287,-0.0841943025646678,3,13.9133680555556,29.9
2.7,11.873954211288,20.3814601942758,0.00983513395391178,-0.0851414003489169,3,13.9133680555556,29.9
2.73333333333333,11.8739139999332,20.3806743250826,0.0346531572505376,0.0248180232966258,4,13.9133680555556,29.9
2.76666666666667,11.8738614448354,20.3795215007294,0.0015759419297121,-0.0330772153208255,3,13.9133680555556,29.9
2.8,11.8738614448354,20.3795215007294,0.00190821707246243,0.000332275142750326,5,13.9133680555556,29.9
2.83333333333333,11.8738614448354,20.3795215007294,0.00255769430627168,0.000649477233809253,5,13.9133680555556,29.9
2.86666666666667,11.8738614448354,20.3795215007294,0.00344698380613368,0.000889289499861997,5,13.9133680555556,29.9
2.9,11.8738614448354,20.3795215007294,0.00446797424438439,0.00102099043825071,5,13.9133680555556,29.9
2.93333333333333,11.8738614448354,20.3795215007294,0.0054986193405109,0.00103064509612651,5,13.9133680555556,29.9
2.96666666666667,11.8738614448354,20.3795215007294,0.00641829570336229,0.000919676362851392,5,13.9133680555556,29.9
3,11.8738614448354,20.3795215007294,0.0071206541733059,0.000702358469943609,5,13.9133680555556,29.9
3.03333333333333,11.8738614448354,20.3795215007294,0.00752326940786619,0.000402615234560292,5,13.9133680555556,29.9
3.06666666666667,11.8738614448354,20.3795215007294,0.00757376388590066,5.04944780344643e-05,5,13.9133680555556,29.9
3.1,11.8738614448354,20.3795215007294,0.00725241715851823,-0.000321346727382425,5,13.9133680555556,29.9
3.13333333333333,11.8738614448354,20.3795215007294,0.00657155035690726,-0.000680866801610976,5,13.9133680555556,29.9
3.16666666666667,11.8738614448354,20.3795215007294,0.0055721881151348,-0.000999362241772452,5,13.9133680555556,29.9
3.2,11.8738614448354,20.3795215007294,0.00431864037390496,-0.00125354774122985,5,13.9133680555556,29.9
3.23333333333333,11.8738614448354,20.3795215007294,0.00289171616887095,-0.00142692420503401,5,13.9133680555556,29.9
3.26666666666667,11.8738614448354,20.3795215007294,0.00138128655183818,-0.00151042961703277,5,13.9133680555556,29.9
3.3,11.8738614448354,20.3795215007294,0.00012113600261258,-0.0012601505492256,5,13.9133680555556,29.9
3.33333333333333,11.8738614448354,20.3795215007294,0.00152922684769792,0.00140809084508534,5,13.9133680555556,29.9
3.36666666666667,11.8738614448354,20.3795215007294,0.00276763412106968,0.00123840727337175,5,13.9133680555556,29.9
3.4,11.8738614448354,20.3795215007294,0.00377640445824101,0.00100877033717133,5,13.9133680555556,29.9
3.43333333333333,11.8738614448354,20.3795215007294,0.00451387620894736,0.000737471750706351,5,13.9133680555556,29.9
3.46666666666667,11.8738614448354,20.3795215007294,0.00495800152939875,0.000444125320451389,5,13.9133680555556,29.9
3.5,11.8738614448354,20.3795215007294,0.00510617765621644,0.000148176126817686,5,13.9133680555556,29.9
3.53333333333333,11.8738614448354,20.3795215007294,0.00497376468870128,-0.000132412967515157,5,13.9133680555556,29.9
3.56666666666667,11.8738614448354,20.3795215007294,0.00459153856620564,-0.000382226122495642,5,13.9133680555556,29.9
3.6,11.8738614448354,20.3795215007294,0.0040023722296329,-0.000589166336572735,5,13.9133680555556,29.9
3.63333333333333,11.8738614448354,20.3795215007294,0.00325745589421901,-0.00074491633541389,5,13.9133680555556,29.9
3.66666666666667,11.8738614448354,20.3795215007294,0.00241236135594636,-0.000845094538272654,5,13.9133680555556,29.9
3.7,11.8738614448354,20.3795215007294,0.00152322902942718,-0.000889132326519176,5,13.9133680555556,29.9
3.73333333333333,11.8738614448354,20.3795215007294,0.000643314547266201,-0.000879914482160981,5,13.9133680555556,29.9
3.76666666666667,11.8738614448354,20.3795215007294,0.000179920769034188,-0.000463393778232013,5,13.9133680555556,29.9
3.8,11.8738614448354,20.3795215007294,0.000907049422606941,0.000727128653572753,5,13.9133680555556,29.9
3.83333333333333,11.8738614448354,20.3795215007294,0.00150818022709537,0.000601130804488426,5,13.9133680555556,29.9
3.86666666666667,11.8738614448354,20.3795215007294,0.00196371276373352,0.000455532536638151,5,13.9133680555556,29.9
3.9,11.8738614448354,20.3795215007294,0.00226438239284639,0.000300669629112877,5,13.9133680555556,29.9
3.93333333333333,11.8738614448354,20.3795215007294,0.0024106751439821,0.000146292751135701,5,13.9133680555556,29.9
3.96666666666667,11.8738614448354,20.3795215007294,0.00241172221128758,1.04706730548422e-06,5,13.9133680555556,29.9
4,11.8738614448354,20.3795215007294,0.00228380323749594,-0.000127918973791644,5,13.9133680555556,29.9
4.03333333333333,11.8738614448354,20.3795215007294,0.00204859627510024,-0.000235206962395696,5,13.9133680555556,29.9
4.06666666666667,11.8738614448354,20.3795215007294,0.00173131113517864,-0.000317285139921596,5,13.9133680555556,29.9
4.1,11.8738614448354,20.3795215007294,0.00135883316265713,-0.000372477972521515,5,13.9133680555556,29.9
4.13333333333333,11.8738614448354,20.3795215007294,0.000957988058406165,-0.000400845104250962,5,13.9133680555556,29.9
4.16666666666667,11.8738614448354,20.3795215007294,0.00055401714370656,-0.000403970914699605,5,13.9133680555556,29.9
4.2,11.8738614448354,20.3795215007294,0.000169328412437615,-0.000384688731268945,5,13.9133680555556,29.9
4.23333333333333,11.8738614448354,20.3795215007294,0.000177436270119487,8.10785768187104e-06,5,13.9133680555556,29.9
4.26666666666667,11.8738614448354,20.3795215007294,0.000472001696605258,0.000294565426485772,5,13.9133680555556,29.9
4.3,11.8738614448354,20.3795215007294,0.00070473352084497,0.000232731824239712,5,13.9133680555556,29.9
4.33333333333333,11.8738614448354,20.3795215007294,0.000870610909097241,0.000165877388252271,5,13.9133680555556,29.9
4.36666666666667,11.8738614448354,20.3795215007294,0.000968937269819072,9.83263607218309e-05,5,13.9133680555556,29.9
4.4,11.8738614448354,20.3795215007294,0.00100283919609883,3.39019262797629e-05,5,13.9133680555556,29.9
4.43333333333333,11.8738614448354,20.3795215007294,0.000978609847291562,-2.4229348807273e-05,5,13.9133680555556,29.9
4.46666666666667,11.8738614448354,20.3795215007294,0.000904954900105583,-7.36549471859792e-05,5,13.9133680555556,29.9
4.5,11.8738614448354,20.3795215007294,0.000693584935413049,-0.000211369964692533,5,13.9133680555556,29.9
4.53333333333333,11.873866545913,20.379988234626,0.025008583589399,0.0243149986539859,4,13.9133680555556,29.9
4.56666666666667,11.873884044963,20.3815893121463,0.0709953825859746,0.0459867989965757,4,13.9133680555556,29.9
4.6,11.8739191622362,20.3848013583672,0.121620866657285,0.05062548407131,4,13.9133680555556,29.9
4.63333333333333,11.8739726162692,20.3896869910372,0.171384233073387,0.0497633664161027,4,13.9133680555556,29.9
4.66666666666667,11.8740441229996,20.3962137561966,0.220078676220235,0.0486944431468476,4,13.9133680555556,29.9
4.7,11.8741333859101,20.4043436845155,0.267585179090399,0.0475065028701637,4,13.9133680555556,29.9
4.73333333333333,11.8742401487292,20.4140372996941,0.313928060837187,0.0463428817467887,4,13.9133680555556,29.9
4.76666666666667,11.8743642368485,20.4252568599273,0.359164302498376,0.0452362416611887,4,13.9133680555556,29.9
4.8,11.8745055599623,20.4379663478443,0.403339471530428,0.0441751690320523,4,13.9133680555556,29.9
4.83333333333333,11.8746641075212,20.4521311293034,0.44649105740629,0.0431515858758613,4,13.9133680555556,29.9
4.86666666666667,11.8748399410125,20.4677176684774,0.488645911756621,0.0421548543503313,4,13.9133680555556,29.9
4.9,11.875033178078,20.4846928487959,0.5298041079634,0.0411581962067794,4,13.9133680555556,29.9
4.93333333333333,11.8752439742464,20.5030234180753,0.569964279916173,0.0401601719527727,4,13.9133680555556,29.9
4.96666666666667,11.8754725093727,20.5226761753976,0.609132542553785,0.0391682626376119,4,13.9133680555556,29.9
5,11.8757189716087,20.5436181863951,0.647320120313358,0.0381875777595735,4,13.9133680555556,29.9
5.03333333333333,11.8759835387422,20.5658169353998,0.684541455083077,0.0372213347697183,4,13.9133680555556,29.9
5.06666666666667,11.8762663596985,20.589240575666,0.720829583664755,0.0362881285816782,4,13.9133680555556,29.9
5.1,11.8765675456675,20.613859032045,0.756250331092963,0.0354207474282087,4,13.9133680555556,29.9
5.13333333333333,11.8768871542207,20.6396443235501,0.790859824460506,0.0346094933675429,4,13.9133680555556,29.9
5.16666666666667,11.8772251683042,20.6665701717365,0.824703357999874,0.0338435335393678,4,13.9133680555556,29.9
5.2,11.8775814798616,20.6946116891731,0.857818267079937,0.0331149090800633,4,13.9133680555556,29.9
5.23333333333333,11.8779558789655,20.7237451466468,0.890236032350531,0.0324177652705933,4,13.9133680555556,29.9
5.26666666666667,11.8783480080479,20.7539477875556,0.921981143279212,0.0317451109286815,4,13.9133680555556,29.9
5.3,11.8787571885501,20.7851971023894,0.953037669120603,0.031056525841391,4,13.9133680555556,29.9
5.33333333333333,11.8791823107342,20.8174696133615,0.983374438864875,0.0303367697442716,4,13.9133680555556,29.9
5.36666666666667,11.8796216082145,20.8507410736124,1.01297619911079,0.0296017602459123,4,13.9133680555556,29.9
5.4,11.8800724904604,20.8849869089559,1.04183744304533,0.028861243934543,4,13.9133680555556,29.9
5.43333333333333,11.8805318210477,20.9201824923333,1.06996079824363,0.0281233551983031,4,13.9133680555556,29.9
5.46666666666667,11.8809962267803,20.9563034028889,1.09735583013822,0.0273950318945912,4,13.9133680555556,29.9
5.5,11.8814620549489,20.9933256199844,1.12403676584778,0.0266809357095592,4,13.9133680555556,29.9
5.53333333333333,11.8819255163748,21.0312256717481,1.15002395325976,0.0259871874119757,4,13.9133680555556,29.9
5.56666666666667,11.8823831607705,21.0699810956683,1.17535879823142,0.0253348449716559,4,13.9133680555556,29.9
5.6,11.8828323420523,21.1095709099604,1.20008487272905,0.024726074497639,4,13.9133680555556,29.9
5.63333333333333,11.8832713745156,21.1499754507092,1.22423852762318,0.0241536548941244,4,13.9133680555556,29.9
5.66666666666667,11.883699569458,21.1911761611938,1.24785059387455,0.0236120662513719,4,13.9133680555556,29.9
5.7,11.8841172166218,21.2331554310319,1.2709476502997,0.0230970564251445,4,13.9133680555556,29.9
5.73333333333333,11.8845255125691,21.2758964721295,1.2935529733564,0.0226053230567065,4,13.9133680555556,29.9
5.76666666666667,11.8849263527897,21.3193832232088,1.31568726636355,0.022134293007148,4,13.9133680555556,29.9
5.8,11.8853217405765,21.3636002788254,1.33736921670325,0.0216819503397039,4,13.9133680555556,29.9
5.83333333333333,11.885713112438,21.4085328343174,1.35861595087353,0.0212467341702756,4,13.9133680555556,29.9
5.86666666666667,11.8861006868407,21.4541665924834,1.37943778180368,0.0208218309301462,4,13.9133680555556,29.9
5.9,11.886482948498,21.5004873841023,1.39983359122879,0.020395809425112,4,13.9133680555556,29.9
5.93333333333333,11.8868563106079,21.547481057223,1.41980562773674,0.0199720365079568,4,13.9133680555556,29.9
5.96666666666667,11.8872144553681,21.595133618598,1.43935983732053,0.0195542095837853,4,13.9133680555556,29.9
6,11.8875496123675,21.6434313187612,1.45850459401314,0.0191447566926157,4,13.9133680555556,29.9
6.03333333333333,11.8878534672801,21.6923607069813,1.47724981268972,0.0187452186765704,4,13.9133680555556,29.9
6.06666666666667,11.8881186577699,21.741908655627,1.49560613100272,0.0183563183130042,4,13.9133680555556,29.9
6.1,11.888340152074,21.7920623692527,1.51358441493255,0.0179782839298255,2,13.9133680555556,29.9
6.13333333333333,11.8885156710867,21.8428093926818,1.53119543162737,0.0176110166948296,2,13.9133680555556,29.9
