Time,x_ego,y_ego,velocity,acceleration,action,x_ped,y_ped
0,11.8,8.9,5,0,1,15.5,29.9
0.0333333333333333,11.8000097327926,9.06660768880986,4.99642268284877,-0.00357731715122966,1,15.4502170138889,29.9
0.0666666666666667,11.8000721714634,9.23309265166767,4.99264839396526,-0.00377428888350639,1,15.4008680555556,29.9
0.1,11.8002244465482,9.39944928326764,4.98873436965547,-0.00391402430979237,1,15.351953125,29.9
0.133333333333333,11.8004879509954,9.56567356139004,4.98472121570788,-0.00401315394759205,1,15.3034722222222,29.9
0.166666666666667,11.8008710609209,9.73176259087521,4.98063737687624,-0.00408383883163577,1,15.2554253472222,29.9
0.2,11.8013724749815,9.89771428449676,4.97650275120509,-0.00413462567115541,1,15.2078125,29.9
0.233333333333333,11.8019844740921,10.0635271410818,4.97233141520006,-0.0041713360050295,1,15.1606336805556,29.9
0.266666666666667,11.8026956841969,10.2292000898822,4.96813352083853,-0.00419789436153284,1,15.1138888888889,29.9
0.3,11.8034931816211,10.3947323788057,4.96391653215711,-0.00421698868142073,1,15.067578125,29.9
0.333333333333333,11.8043639686761,10.5601234916687,4.95968600695953,-0.00423052519757139,1,15.0217013888889,29.9
0.366666666666667,11.8052959497531,10.7253730853141,4.95544610092948,-0.00423990603005731,1,14.9762586805556,29.9
0.4,11.8062785624234,10.8904809411413,4.95119991410683,-0.00424618682264377,1,14.93125,29.9
0.433333333333333,11.8073031876401,11.0554469277149,4.94694974612449,-0.00425016798234434,1,14.8866753472222,29.9
0.466666666666667,11.8083627961563,11.2202709743374,4.94269713009106,-0.00425261603342353,1,14.8425347222222,29.9
0.5,11.8094493986669,11.3849530606061,4.93844295005039,-0.00425418004067346,1,14.798828125,29.9
0.533333333333333,11.8105511737885,11.5494932169437,4.93418758856531,-0.00425536148508243,1,14.7555555555556,29.9
0.566666666666667,11.8116506453873,11.7138915284275,4.92993169539981,-0.00425589316549502,1,14.7127170138889,29.9
0.6,11.8127285906534,11.878148116368,4.9256758596629,-0.00425583573691135,1,14.6703125,29.9
0.633333333333333,11.8137585816831,12.0422631570926,4.92142079584172,-0.00425506382117913,1,14.6283420138889,29.9
0.666666666666667,11.8147085979561,12.2062368695793,4.91716766887982,-0.00425312696189994,1,14.5868055555556,29.9
0.7,11.8155399894703,12.3700695075874,4.91291826146819,-0.0042494074116286,1,14.545703125,29.9
0.733333333333333,11.8162168625684,12.5337612938208,4.908674345949,-0.00424391551919268,1,14.5050347222222,29.9
0.766666666666667,11.8167127309567,12.6973123642546,4.90443650327176,-0.00423784267723804,1,14.4648003472222,29.9
0.8,11.8170168264285,12.8607227280653,4.90020350312989,-0.00423300014187866,1,14.425,29.9
0.833333333333333,11.817133751014,13.0239922827107,4.89597301585408,-0.00423048727580433,1,14.3856336805556,29.9
0.866666666666667,11.8170794594607,13.187120862973,4.89174256282821,-0.00423045302587344,1,14.3467013888889,29.9
0.9,11.8168781056674,13.3501082900476,4.88751047351669,-0.00423208931152175,1,14.308203125,29.9
0.933333333333333,11.8165559509026,13.512954420544,4.88327633386918,-0.00423413964751074,1,14.2701388888889,29.9
0.966666666666667,11.8161380426802,13.6756591664442,4.87904051496459,-0.0042358189045828,1,14.2325086805556,29.9
1,11.8156465077337,13.8382224954301,4.8748038033669,-0.0042367115976969,1,14.1953125,29.9
1.03333333333333,11.8150995334071,14.0006444209285,4.87056709646915,-0.0042367068977418,1,14.1585503472222,29.9
1.06666666666667,11.8145108384415,14.1629249879891,4.86633121226537,-0.00423588420378085,1,14.1222222222222,29.9
1.1,11.8138895066125,14.3250642593172,4.86209680063313,-0.0042344116322468,1,14.086328125,29.9
1.13333333333333,11.8132401239707,14.4870623037652,4.85786432241066,-0.00423247822246342,1,14.0508680555556,29.9
1.16666666666667,11.8125632086589,14.6488901222852,4.8518901675981,-0.00597415481256558,1,14.0158420138889,29.9
1.2,11.8118565815891,14.8103744754937,4.83726437593232,-0.0146257916657744,1,13.98125,29.9
1.23333333333333,11.8111184486422,14.9711982743462,4.81226607481676,-0.0249983011155654,3,13.9470920138889,29.9
1.26666666666667,11.8103482815783,15.1310157869131,4.77689731560563,-0.0353687592111225,3,13.9133680555556,29.9
1.3,11.8095473096357,15.2895965373992,4.73807068902033,-0.0388266265853039,3,13.9133680555556,29.9
1.33333333333333,11.808719957145,15.4468830731491,4.69925397773677,-0.0388167112835625,3,13.9133680555556,29.9
1.36666666666667,11.8078721724414,15.6028467031365,4.65870440511986,-0.0405495726169045,3,13.9133680555556,29.9
1.4,11.8070121494671,15.7574878533865,4.61991089154532,-0.0387935135745447,3,13.9133680555556,29.9
1.43333333333333,11.8061486039596,15.910836048621,4.58112999802001,-0.0387808935253098,3,13.9133680555556,29.9
1.46666666666667,11.8052916259551,16.0628340034614,4.53889618163259,-0.042233816387415,3,13.9133680555556,29.9
1.5,11.8044497865767,16.2133379815712,4.49148841414225,-0.0474077674903439,3,13.9133680555556,29.9
1.53333333333333,11.8036278067719,16.3622333334139,4.44237401523274,-0.0491143989095084,3,13.9133680555556,29.9
1.56666666666667,11.8028286870553,16.5094628385729,4.39153199235247,-0.0508420228802731,3,13.9133680555556,29.9
1.6,11.8020539558801,16.6549692951303,4.3389849442577,-0.0525470480947652,3,13.9133680555556,29.9
1.63333333333333,11.8013018529237,16.7987245760974,4.28645572414917,-0.0525292201085366,3,13.9133680555556,29.9
1.66666666666667,11.8005677984486,16.9407292607969,4.23394471391695,-0.0525110102322195,3,13.9133680555556,29.9
1.7,11.7998458404699,17.0809261626567,4.1779861177705,-0.0559585961464482,3,13.9133680555556,29.9
1.73333333333333,11.7991294731297,17.219258107687,4.1220466301837,-0.0559394875868007,3,13.9133680555556,29.9
1.76666666666667,11.7984124189447,17.3556970024609,4.06440444380039,-0.0576421863833136,3,13.9133680555556,29.9
1.8,11.7976894297772,17.4902147699702,4.00678213435609,-0.0576223094442989,3,13.9133680555556,29.9
1.83333333333333,11.7969564789203,17.6228407539305,3.95090204939092,-0.0558800849651671,3,13.9133680555556,29.9
1.86666666666667,11.7962114554596,17.7535469018618,3.89159770529086,-0.0593043441000614,3,13.9133680555556,29.9
1.9,11.7954543647327,17.8823051787671,3.83403584126577,-0.0575618640250868,3,13.9133680555556,29.9
1.93333333333333,11.794688065275,18.0091449742883,3.77649418092279,-0.0575416603429786,3,13.9133680555556,29.9
1.96666666666667,11.7939168434099,18.1340669830862,3.71897266083368,-0.0575215200891135,3,13.9133680555556,29.9
2,11.7931470584759,18.2570432089167,3.65974906447439,-0.0592235963592866,3,13.9133680555556,29.9
2.03333333333333,11.7923860779611,18.3780456669461,3.60054576517222,-0.0592032993021707,3,13.9133680555556,29.9
2.06666666666667,11.7916401424015,18.4970460097359,3.53961897984782,-0.0609267853244044,3,13.9133680555556,29.9
2.1,11.7909149946619,18.6139871919821,3.47699086250913,-0.0626281173386904,3,13.9133680555556,29.9
2.13333333333333,11.7902140560629,18.728841233538,3.41438398890507,-0.0626068736040528,3,13.9133680555556,29.9
2.16666666666667,11.7895383865636,18.8415797862205,3.35005465158543,-0.0643293373196427,3,13.9133680555556,29.9
2.2,11.7888872791581,18.9521457975016,3.28402499243772,-0.0660296591477114,3,13.9133680555556,29.9
2.23333333333333,11.7882584783844,19.0605112840483,3.21801751661143,-0.066007475826289,3,13.9133680555556,29.9
2.26666666666667,11.7876488646668,19.1666482662914,3.15031027101927,-0.0677072455921564,3,13.9133680555556,29.9
2.3,11.7870551015229,19.2704997060017,3.08088178225973,-0.0694284887595407,3,13.9133680555556,29.9
2.33333333333333,11.7864737497478,19.3720372793666,3.01147636423043,-0.0694054180293087,3,13.9133680555556,29.9
2.36666666666667,11.7859016040164,19.4712617393809,2.94209421127324,-0.069382152957183,3,13.9133680555556,29.9
2.4,11.7853362553982,19.5681451453694,2.8710132990979,-0.0710809121753462,3,13.9133680555556,29.9
2.43333333333333,11.7847760977714,19.662659567988,2.79995602893096,-0.0710572701669365,3,13.9133680555556,29.9
2.46666666666667,11.784220404176,19.7547770888523,2.72720036890757,-0.072755660023387,3,13.9133680555556,29.9
2.5,11.7836693187217,19.8444698014544,2.65446871125265,-0.0727316576549204,3,13.9133680555556,29.9
2.53333333333333,11.7831236154012,19.9317385122691,2.58176115720757,-0.0727075540450786,3,13.9133680555556,29.9
2.56666666666667,11.7825847073027,20.0165840346271,2.50907775196826,-0.072683405239311,3,13.9133680555556,29.9
2.6,11.7820544492293,20.0990071860116,2.4364185070981,-0.0726592448701626,3,13.9133680555556,29.9
2.63333333333333,11.7815348967276,20.1790087855409,2.36378341653179,-0.0726350905663073,3,13.9133680555556,29.9
2.66666666666667,11.781028056245,20.256589651682,2.29117246475452,-0.0726109517772722,3,13.9133680555556,29.9
2.7,11.7805355235674,20.3317793721121,2.22032378113821,-0.0708486836163122,3,13.9133680555556,29.9
2.73333333333333,11.7800584881448,20.4046119473887,2.14983957418515,-0.0704842069530618,3,13.9133680555556,29.9
2.76666666666667,11.7795977470083,20.4751114112163,2.08047086022273,-0.0693687139624153,3,13.9133680555556,29.9
2.8,11.779153502668,20.5433257660332,2.01277324560422,-0.0676976146185142,3,13.9133680555556,29.9
2.83333333333333,11.7787254826004,20.6093137954738,1.9468991354625,-0.0658741101417126,3,13.9133680555556,29.9
2.86666666666667,11.7783130690993,20.6731362424854,1.88281875410645,-0.0640803813560593,3,13.9133680555556,29.9
2.9,11.7779154226853,20.7348513497348,1.82044106898695,-0.0623776851194939,3,13.9133680555556,29.9
2.93333333333333,11.777531586106,20.7945143330071,1.75966916604733,-0.0607719029396179,3,13.9133680555556,29.9
2.96666666666667,11.7771605818511,20.852176524569,1.70037024770201,-0.0592989183453239,3,13.9133680555556,29.9
3,11.776801489243,20.9078851838472,1.64244215585,-0.0579280918520049,3,13.9133680555556,29.9
3.03333333333333,11.7764534915892,20.9616848813084,1.58582349733953,-0.0566186585104758,3,13.9133680555556,29.9
3.06666666666667,11.7761157318932,21.013647279323,1.53219395620028,-0.0536295411392445,3,13.9133680555556,29.9
3.1,11.7757874990852,21.0638422100723,1.47976232381051,-0.0524316323897713,3,13.9133680555556,29.9
3.13333333333333,11.7754684011426,21.1123085537461,1.4284697537541,-0.0512925700564155,3,13.9133680555556,29.9
3.16666666666667,11.7751580029245,21.1591126538052,1.38002081378708,-0.048448939967014,3,13.9133680555556,29.9
3.2,11.7748558055794,21.2043483784507,1.33436020085616,-0.0456606129309192,3,13.9133680555556,29.9
3.23333333333333,11.7745615729057,21.2480792251804,1.28971676852075,-0.0446434323354095,3,13.9133680555556,29.9
3.26666666666667,11.7742749601783,21.2903958698441,1.2494970716778,-0.0402196968429551,3,13.9133680555556,29.9
3.3,11.7739956700349,21.3313870425903,1.21017871997866,-0.039318351699136,3,13.9133680555556,29.9
3.33333333333333,11.7737234313696,21.3711397666832,1.17518102671918,-0.0349976932594798,3,13.9133680555556,29.9
3.36666666666667,11.7734578087655,21.4097681902532,1.14271133240358,-0.032469694315604,3,13.9133680555556,29.9
3.4,11.7731988956871,21.4472984191156,1.10928332663378,-0.0334280057697987,3,13.9133680555556,29.9
3.43333333333333,11.7729469501608,21.4837270345553,1.07661547288638,-0.0326678537473981,3,13.9133680555556,29.9
3.46666666666667,11.7727020307978,21.5190795985248,1.0447204362579,-0.0318950366284796,3,13.9133680555556,29.9
3.5,11.7724641687704,21.553382007091,1.01360538578154,-0.0311150504763589,3,13.9133680555556,29.9
3.53333333333333,11.7722331880997,21.5866889971119,0.984992731252062,-0.0286126545294827,3,13.9133680555556,29.9
3.56666666666667,11.7720088830713,21.61905509925,0.957147788981406,-0.0278449422706561,3,13.9133680555556,29.9
3.6,11.7717911970175,21.650505628343,0.930054100786071,-0.027093688195335,3,13.9133680555556,29.9
3.63333333333333,11.7715800441872,21.6810653697603,0.903696488260566,-0.0263576125255053,3,13.9133680555556,29.9
3.66666666666667,11.771375310435,21.710758538823,0.87805097452801,-0.0256455137325559,3,13.9133680555556,29.9
3.7,11.7711768595512,21.7396079514984,0.853059264517014,-0.0249917100109954,3,13.9133680555556,29.9
3.73333333333333,11.7709845386993,21.7676344595293,0.82866734806952,-0.0243919164474945,3,13.9133680555556,29.9
3.76666666666667,11.7707981786619,21.7948573352028,0.804833832635047,-0.0238335154344733,3,13.9133680555556,29.9
3.8,11.7706175949274,21.8212946326278,0.781526552644989,-0.0233072799900572,3,13.9133680555556,29.9
3.83333333333333,11.7704425899927,21.8469634519935,0.758720095438568,-0.0228064572064218,3,13.9133680555556,29.9
3.86666666666667,11.7702729565862,21.8718801330845,0.736393995583266,-0.0223260998553012,3,13.9133680555556,29.9
3.9,11.7701084815232,21.8960603971553,0.714531417158183,-0.0218625784250834,3,13.9133680555556,29.9
3.93333333333333,11.7699489499145,21.9195194511069,0.693118192230544,-0.0214132249276388,3,13.9133680555556,29.9
3.96666666666667,11.7697941748958,21.9422720650066,0.672142183209197,-0.0209760090213473,3,13.9133680555556,29.9
4,11.7696440717461,21.9643327366541,0.651603057197626,-0.0205391260115704,3,13.9133680555556,29.9
4.03333333333333,11.7694985706272,21.985716303121,0.631517289504913,-0.0200857676927132,3,13.9133680555556,29.9
4.06666666666667,11.7693575903164,22.006438069005,0.611895249044232,-0.0196220404606813,3,13.9133680555556,29.9
4.1,11.7692210411197,22.0265135765017,0.592741158832644,-0.0191540902115883,3,13.9133680555556,29.9
4.13333333333333,11.7690888275025,22.0459584305353,0.57405480904934,-0.0186863497833035,3,13.9133680555556,29.9
4.16666666666667,11.7689608503395,22.0647881730329,0.555832814862927,-0.018221994186413,3,13.9133680555556,29.9
4.2,11.7688370087679,22.0830181932793,0.538069539445423,-0.0177632754175042,5,13.9133680555556,29.9
4.23333333333333,11.7687172016419,22.1006636647428,0.520757770807369,-0.0173117686380535,5,13.9133680555556,29.9
4.26666666666667,11.7686013286018,22.1177395013049,0.503889217680191,-0.0168685531271786,5,13.9133680555556,29.9
4.3,11.7684892907904,22.1342603276957,0.487454872423757,-0.0164343452564334,5,13.9133680555556,29.9
4.33333333333333,11.7683809912595,22.1502404603105,0.471445276224891,-0.0160095961988662,5,13.9133680555556,29.9
4.36666666666667,11.7682763465097,22.1656938956713,0.455850712099208,-0.0155945641256836,5,13.9133680555556,29.9
4.4,11.768175318364,22.1806343002703,0.440660512475821,-0.0151901996233869,5,13.9133680555556,29.9
4.43333333333333,11.7680778762548,22.1950748599326,0.425855548921182,-0.0148049635546387,5,13.9133680555556,29.9
4.46666666666667,11.7679839858223,22.2090280633679,0.411415307661945,-0.0144402412592372,5,13.9133680555556,29.9
4.5,11.7678936078088,22.2225057753872,0.397322707031153,-0.0140926006307915,5,13.9133680555556,29.9
4.53333333333333,11.767806880546,22.2354906493604,0.381842895535244,-0.0154798114959091,5,13.9133680555556,29.9
4.56666666666667,11.7677239348436,22.247965061848,0.366693639576031,-0.015149255959213,5,13.9133680555556,29.9
4.6,11.7676447095253,22.259939972137,0.351871151909574,-0.0148224876664569,5,13.9133680555556,29.9
4.63333333333333,11.7675698746884,22.2713107194102,0.330445583178883,-0.0214255687306913,3,13.9133680555556,29.9
4.66666666666667,11.7675004591072,22.2819154206585,0.305913704844148,-0.0245318783347349,3,13.9133680555556,29.9
4.7,11.7674369216138,22.2916802815323,0.280060554743936,-0.0258531501002126,3,13.9133680555556,29.9
4.73333333333333,11.7673793379972,22.3005905945921,0.254644714659752,-0.0254158400841837,3,13.9133680555556,29.9
4.76666666666667,11.767327773871,22.3086326850729,0.227970307025959,-0.0266744076337934,3,13.9133680555556,29.9
4.8,11.7672824726807,22.3157647393445,0.20005313980194,-0.0279171672240181,3,13.9133680555556,29.9
4.83333333333333,11.7672434791841,22.3219758220671,0.172728680777375,-0.0273244590245649,3,13.9133680555556,29.9
4.86666666666667,11.7672108163924,22.3272584134895,0.144357414136772,-0.0283712666406035,3,13.9133680555556,29.9
4.9,11.7671844929642,22.3316074111385,0.116725098699559,-0.0276323154372134,3,13.9133680555556,29.9
4.93333333333333,11.7671645081802,22.3350194844713,0.0881539675319054,-0.0285711311676532,3,13.9133680555556,29.9
4.96666666666667,11.7671510415603,22.337463566506,0.0586615411302937,-0.0294924264016117,3,13.9133680555556,29.9
5,11.7671440847526,22.3389384834355,0.0300315534153377,-0.028629987714956,3,13.9133680555556,29.9
5.03333333333333,11.7671434419281,22.3394729805678,0.00262136478925637,-0.0274101886260813,3,13.9133680555556,29.9
5.06666666666667,11.7671483829698,22.3391799185537,0.0125075296408926,0.00988616485163626,5,13.9133680555556,29.9
5.1,11.7671543824514,22.3387651512004,0.000971459561304989,-0.0115360700795876,5,13.9133680555556,29.9
5.13333333333333,11.7671543824514,22.3387651512004,0.000529344453081757,-0.000442115108223232,5,13.9133680555556,29.9
5.16666666666667,11.7671543824514,22.3387651512004,4.47895704693058e-05,-0.000484554882612451,5,13.9133680555556,29.9
5.2,11.7671543824514,22.3387651512004,0.000708398560609857,0.000663608990140551,5,13.9133680555556,29.9
5.23333333333333,11.7671543824514,22.3387651512004,0.00140846279083644,0.00070006423022658,5,13.9133680555556,29.9
5.26666666666667,11.7671543824514,22.3387651512004,0.00208815523550817,0.000679692444671736,5,13.9133680555556,29.9
5.3,11.7671543824514,22.3387651512004,0.00269293298812088,0.000604777752612703,5,13.9133680555556,29.9
5.33333333333333,11.7671543824514,22.3387651512004,0.00317562368074448,0.000482690692623603,5,13.9133680555556,29.9
5.36666666666667,11.7671543824514,22.3387651512004,0.00359858344402213,0.000422959763277648,5,13.9133680555556,29.9
5.4,11.7671526141427,22.339041656887,0.0129747014119321,0.00937611796790993,5,13.9133680555556,29.9
5.43333333333333,11.7671485723939,22.3396736560013,0.0258999049260251,0.012925203514093,5,13.9133680555556,29.9
5.46666666666667,11.767141363223,22.3408008953016,0.0422647258468246,0.0163648209207995,5,13.9133680555556,29.9
5.5,11.7671280857293,22.3428768777262,0.0825541380262917,0.0402894121794671,4,13.9133680555556,29.9
5.53333333333333,11.7671051411248,22.3464640472843,0.132733769646914,0.0501796316206221,4,13.9133680555556,29.9
5.56666666666667,11.7670715691508,22.3517118307947,0.182086096094057,0.0493523264471437,4,13.9133680555556,29.9
5.6,11.7670275656627,22.3585881904369,0.230389472059474,0.048303375965417,4,13.9133680555556,29.9
5.63333333333333,11.7669733548848,22.3670557746025,0.277538864818547,0.0471493927590724,4,13.9133680555556,29.9
5.66666666666667,11.7669091599836,22.3770763732758,0.323566959900855,0.046028095082308,4,13.9133680555556,29.9
5.7,11.7668351867513,22.3886133756247,0.368521200850723,0.0449542409498677,4,13.9133680555556,29.9
5.73333333333333,11.7667516243543,22.401631617184,0.412440231520379,0.0439190306696565,4,13.9133680555556,29.9
5.76666666666667,11.766658647206,22.4160971150457,0.455356178428182,0.042915946907803,4,13.9133680555556,29.9
5.8,11.7665564173581,22.4319767889867,0.497287339266865,0.041931160838683,4,13.9133680555556,29.9
5.83333333333333,11.7664450903092,22.4492377160582,0.538227955712932,0.0409406164460666,4,13.9133680555556,29.9
5.86666666666667,11.7663248186196,22.4678467932016,0.57817592964843,0.039947973935498,4,13.9133680555556,29.9
5.9,11.7661957521938,22.487770978693,0.617136566121933,0.0389606364735032,4,13.9133680555556,29.9
5.93333333333333,11.7660580390555,22.5089775030588,0.655120411352081,0.0379838452301484,4,13.9133680555556,29.9
5.96666666666667,11.7659118266816,22.53143402292,0.692142673396252,0.0370222620441711,4,13.9133680555556,29.9
6,11.7657572616956,22.5551090432813,0.728244747445319,0.0361020740490666,4,13.9133680555556,29.9
6.03333333333333,11.7655944854202,22.5799729773846,0.763491319117179,0.0352465716718598,4,13.9133680555556,29.9
6.06666666666667,11.7654236353929,22.6059982430975,0.79793628648396,0.0344449673667809,4,13.9133680555556,29.9
6.1,11.7652448495912,22.6331588841991,0.831623482274575,0.0336871957906153,4,13.9133680555556,29.9
6.13333333333333,11.7650582696611,22.661430278014,0.864589256673772,0.0329657743991968,4,13.9133680555556,29.9
6.16666666666667,11.7648640431327,22.6907889166921,0.896864364689332,0.0322751080155599,4,13.9133680555556,29.9
