Time,x_ego,y_ego,velocity,acceleration,action,x_ped,y_ped
0,11.8,15.9,7,0,1,15.5,29.9
0.0333333333333333,11.8000033352482,16.1332703793902,6.99615578502647,-0.00384421497352516,1,15.5,29.9
0.0666666666666667,11.8000242039131,16.36640659865,6.99196953179015,-0.0041862532363206,1,15.5,29.9
0.1,11.8000739008388,16.5994007538279,6.98769519447533,-0.0042743373148193,1,15.5,29.9
0.133333333333333,11.8001582830414,16.8322537788342,6.98349808894416,-0.00419710553117181,1,15.5,29.9
0.166666666666667,11.800279393109,17.0649678608344,6.97935655021923,-0.00414153872493106,1,15.5,29.9
0.2,11.8004369138682,17.2975445730875,6.97525503719279,-0.00410151302643946,1,15.5,29.9
0.233333333333333,11.800629282733,17.5299850494697,6.97118241654855,-0.00407262064423808,1,15.5,29.9
0.266666666666667,11.8008544289405,17.7622901096348,6.96713072179862,-0.00405169474993095,1,15.5,29.9
0.3,11.8011101869396,17.9944603485966,6.96309425533199,-0.00403646646663791,1,15.5,29.9
0.333333333333333,11.8013944827277,18.2264962007482,6.95906894136517,-0.00402531396681294,1,15.5,29.9
0.366666666666667,11.8017053946636,18.4583979855791,6.95505186236178,-0.00401707900339243,1,15.5,29.9
0.4,11.8020411692978,18.690165940312,6.95104092840305,-0.00401093395872909,1,15.5,29.9
0.433333333333333,11.802400240286,18.921800243193,6.94703464183062,-0.00400628657242752,1,15.5,29.9
0.466666666666667,11.8027812665766,19.1533010301029,6.94303192955814,-0.00400271227248705,1,15.5,29.9
0.5,11.8031807523582,19.3846684091754,6.93903189785362,-0.00400003170451235,1,15.5,29.9
0.533333333333333,11.8035858778686,19.6159024791829,6.93503390992336,-0.00399798793026207,1,15.5,29.9
0.566666666666667,11.8039757616548,19.8470033374325,6.93103759622949,-0.00399631369387254,1,15.5,29.9
0.6,11.8043144167095,20.0779710937095,6.92704308875183,-0.00399450747766039,1,15.5,29.9
0.633333333333333,11.8045558710092,20.3088058608939,6.92305120610205,-0.0039918826497809,1,15.5,29.9
0.666666666666667,11.8046536206271,20.5395077266176,6.91906295257368,-0.00398825352837306,1,15.5,29.9
0.7,11.8045666480267,20.7700767225061,6.91507898188779,-0.00398397068588796,1,15.5,29.9
0.733333333333333,11.8042621645908,21.0005128020468,6.9110990076933,-0.00397997419449148,1,15.5,29.9
0.766666666666667,11.8037232669107,21.2308158321316,6.90712150012362,-0.00397750756967241,1,15.5,29.9
0.8,11.802948244066,21.4609856196044,6.90314461173507,-0.00397688838855803,1,15.5,29.9
0.833333333333333,11.8019449685941,21.6910219528023,6.89916700909785,-0.00397760263721825,1,15.5,29.9
0.866666666666667,11.8007269473211,21.9209246375293,6.89518781977392,-0.00397918932392738,1,15.5,29.9
0.9,11.7993128840354,22.1506935260957,6.89120661517067,-0.0039812046032548,1,15.5,29.9
0.933333333333333,11.797723525188,22.3803285313894,6.88722382516337,-0.00398279000729662,1,15.5,29.9
0.966666666666667,11.7959774581233,22.6098296184957,6.88324002390283,-0.00398380126053421,1,15.5,29.9
1,11.7940929650722,22.8391968013392,6.87925553404365,-0.0039844898591852,1,15.5,29.9
1.03333333333333,11.7920887012774,23.0684301388894,6.87527046385812,-0.0039850701855304,1,15.5,29.9
1.06666666666667,11.7899845118884,23.2975297345971,6.87128516255438,-0.00398530130373409,1,15.5,29.9
1.1,11.7877973954624,23.5264957096599,6.86730024954819,-0.00398491300619686,1,15.5,29.9
1.13333333333333,11.7855406343109,23.7553281854565,6.8633161948394,-0.00398405470878682,1,15.5,29.9
1.16666666666667,11.783224854547,23.9840272795058,6.85933309384584,-0.00398310099355914,1,15.5,29.9
1.2,11.7808605545548,24.2125931175607,6.85535110488086,-0.0039819889649797,1,15.5,29.9
1.23333333333333,11.7784544637437,24.4410258041139,6.85137068950822,-0.00398041537263882,1,15.5,29.9
1.26666666666667,11.7760070617749,24.6693253942213,6.84739212565542,-0.00397856385280182,1,15.5,29.9
1.3,11.7735152084089,24.8974919057562,6.84341523890107,-0.00397688675435326,1,15.5,29.9
1.33333333333333,11.7709778950536,25.1255253667698,6.83943955718283,-0.00397568171823526,1,15.5,29.9
1.36666666666667,11.7683997541403,25.3534258532072,6.8354647012867,-0.00397485589613478,1,15.5,29.9
1.4,11.7657892527723,25.5811934805919,6.83149066149561,-0.00397403979108901,1,15.5,29.9
1.43333333333333,11.7631543230432,25.8088283655497,6.82751757746592,-0.00397308402968655,1,15.5,29.9
1.46666666666667,11.7605018080212,26.0363306266202,6.82354644216802,-0.00397113529790349,1,15.5,29.9
1.5,11.7578368936485,26.2637004504738,6.8195815425318,-0.00396489963621427,1,15.5,29.9
1.53333333333333,11.755160852154,26.4909381672741,6.81562969346387,-0.00395184906793311,1,15.4972222222222,29.9
1.56666666666667,11.7524719705891,26.7180443248862,6.81169903818345,-0.0039306552804188,1,15.4888888888889,29.9
1.6,11.7497669876767,26.9450197280009,6.80779775070196,-0.0039012874814901,1,15.475,29.9
1.63333333333333,11.7470420751696,27.1718654300868,6.80393288391005,-0.00386486679191655,1,15.4555555555556,29.9
1.66666666666667,11.7442942500487,27.3985827003615,6.80010967202037,-0.00382321188967172,1,15.4305555555556,29.9
1.7,11.7415243296093,27.6251729859754,6.79633066180937,-0.00377901021100513,1,15.4,29.9
1.73333333333333,11.7387378667245,27.8516384404477,6.79273695562563,-0.00359370618373944,1,15.3666666666667,29.9
1.76666666666667,11.7359488712251,28.0780195600615,6.79198884377435,-0.000748111851279987,1,15.3333333333333,29.9
1.8,11.7331775376343,28.3044699088546,6.79713489469279,0.00514605091844178,1,15.3,29.9
1.83333333333333,11.7304516533245,28.5312021030921,6.80888384297388,0.0117489482810917,1,15.2666666666667,29.9
1.86666666666667,11.727808904013,28.7584360198521,6.82712462887843,0.0182407859045499,4,15.2333333333333,29.9
1.9,11.7252888699183,28.9863824462383,6.85147614410557,0.0243515152271376,4,15.2,29.9
1.93333333333333,11.7229242997164,29.2152367786413,6.88139411022093,0.0299179661153559,4,15.1666666666667,29.9
1.96666666666667,11.720738620511,29.4451747410395,6.91629175193949,0.0348976417185618,4,15.1333333333333,29.9
2,11.7187401271364,29.6763532753623,6.95563834900865,0.0393465970691604,4,15.1,29.9
2.03333333333333,11.7169250144956,29.9089119838424,6.99892572913954,0.0432873801308862,4,15.0666666666667,29.9
2.06666666666667,11.7152799712284,30.1429739243502,7.04568178189048,0.0467560527509487,4,15.0333333333333,29.9
2.1,11.7137863710474,30.3786479318491,7.09553809463105,0.0498563127405687,4,15,29.9
2.13333333333333,11.7124247482877,30.6160329704047,7.14826752686322,0.0527294322321659,4,14.9666666666667,29.9
2.16666666666667,11.7111795718751,30.8552226284508,7.20376796931718,0.0555004424539627,4,14.9333333333333,29.9
2.2,11.7100396530032,31.0963088401888,7.26203324839791,0.0582652790807314,4,14.9,29.9
2.23333333333333,11.708997346128,31.3393843801339,7.32310724398678,0.0610739955888686,4,14.8666666666667,29.9
2.26666666666667,11.7080478492687,31.5845432818075,7.38701228894334,0.0639050449565541,4,14.8333333333333,29.9
2.3,11.7071887192623,31.83187976298,7.45373421106065,0.0667219221173108,4,14.8,29.9
2.33333333333333,11.7064195686301,32.0814866077243,7.52319651415235,0.069462303091707,4,14.7666666666667,29.9
2.36666666666667,11.7057418499191,32.3334528430665,7.59525030750576,0.0720537933534029,4,14.7333333333333,29.9
2.4,11.70515771268,32.5878614395558,7.66968359111931,0.0744332836135548,4,14.7,29.9
2.43333333333333,11.7046658711848,32.8447874846207,7.74623926180382,0.0765556706845132,4,14.6666666666667,29.9
2.46666666666667,11.7042573362746,33.1042970112955,7.82463496693045,0.0783957051266277,4,14.6333333333333,29.9
2.5,11.7039112639427,33.3664464427425,7.90457769138121,0.0799427244507562,4,14.6,29.9
2.53333333333333,11.7035977616501,33.6312822286507,7.98576214113897,0.0811844497577621,4,14.5666666666667,29.9
2.56666666666667,11.7032778773878,33.8988406031111,8.06788265846575,0.0821205173267767,4,14.5333333333333,29.9
2.6,11.7029047099668,34.1691476935412,8.15063946608634,0.082756807620596,4,14.5,29.9
2.63333333333333,11.7024313648171,34.4422196502139,8.23373345907226,0.0830939929859209,4,14.4666666666667,29.9
2.66666666666667,11.7018187860214,34.7180625229116,8.31685997833381,0.0831265192615476,4,14.4333333333333,29.9
2.7,11.7010449039018,34.9966722506328,8.39971922424846,0.0828592459146442,4,14.4,29.9
2.73333333333333,11.7001042474004,35.2780349535277,8.48202099419325,0.0823017699447899,4,14.3666666666667,29.9
2.76666666666667,11.699005299832,35.5621273562972,8.56349069493917,0.0814697007459202,4,14.3333333333333,29.9
2.8,11.6977693462178,35.8489175997189,8.64388795167942,0.0803972567402536,4,14.3,29.9
2.83333333333333,11.6964313599228,36.1383668577003,8.72303356617859,0.0791456144991702,4,14.2666666666667,29.9
2.86666666666667,11.6950333644869,36.4304316275512,8.80082232316919,0.0777887569906053,4,14.2333333333333,29.9
2.9,11.6936155038773,36.7250660717448,8.87721662596115,0.0763943027919538,4,14.2,29.9
2.93333333333333,11.6922130308424,37.022223966523,8.95222760205926,0.0750109760981132,4,14.1666666666667,29.9
2.96666666666667,11.6908642622975,37.3218599426548,9.02589017154942,0.0736625694901569,4,14.1333333333333,29.9
3,11.6896087721528,37.6239291548391,9.09818960092443,0.0722994293750148,4,14.1,29.9
3.03333333333333,11.6884788993653,37.9283860388131,9.16913098923284,0.0709413883084018,4,14.0666666666667,29.9
3.06666666666667,11.6874985537256,38.2351873619459,9.23885374724223,0.0697227580093909,4,14.0333333333333,29.9
3.1,11.6866781327527,38.5442950859432,9.30750482891682,0.0686510816745951,4,14,29.9
3.13333333333333,11.6860151140347,38.8556746984514,9.3751500852355,0.0676452563186771,4,13.9666666666667,29.9
3.16666666666667,11.6855007449547,39.1692933134092,9.4418386167377,0.0666885315021997,4,13.9333333333333,29.9
