Time,x_ego,y_ego,velocity,acceleration,action,x_ped,y_ped
0,11.8,8.9,5,0,1,15.5,29.9
0.0333333333333333,11.8000054689588,9.06660768883178,4.99642263600772,-0.00357736399227804,1,15.5,29.9
0.0666666666666667,11.8000405538994,9.23309265265766,4.99264782867991,-0.00377480732780988,1,15.5,29.9
0.1,11.8001261188274,9.39944929261209,4.98873227005768,-0.0039155586222348,1,15.5,29.9
0.133333333333333,11.8002741845926,9.56567360458295,4.98471646188001,-0.00401580817766867,1,15.5,29.9
0.166666666666667,11.8004894577091,9.73176272508366,4.98062922532514,-0.0040872365548692,1,15.5,29.9
0.2,11.8007712067914,9.89771460819865,4.9764910630369,-0.00413816228824349,1,15.5,29.9
0.233333333333333,11.801115094239,10.0635277961989,4.97231661135928,-0.00417445167761876,1,15.5,29.9
0.266666666666667,11.8015147286884,10.2292012562059,4.96811638025766,-0.00420023110161694,1,15.5,29.9
0.3,11.8019628480588,10.3947342630508,4.96389796160531,-0.00421841865235262,1,15.5,29.9
0.333333333333333,11.8024521487341,10.5601263144809,4.95966686224921,-0.004231099356101,1,15.5,29.9
0.366666666666667,11.8029758340538,10.7253770692566,4.95542708340446,-0.00423977884474525,1,15.5,29.9
0.4,11.8035279689379,10.8904863017087,4.95118153124337,-0.00424555216108757,1,15.5,29.9
0.433333333333333,11.8041037103742,11.0554538683306,4.94693231332678,-0.00424921791659649,1,15.5,29.9
0.466666666666667,11.8046994524739,11.2202796832904,4.94268095491169,-0.00425135841508517,1,15.5,29.9
0.5,11.8053128951536,11.3849637006198,4.93842855700551,-0.00425239790617926,1,15.5,29.9
0.533333333333333,11.8059430274954,11.5495059014349,4.93417591141397,-0.0042526455915386,1,15.5,29.9
0.566666666666667,11.8065900142946,11.7139062849598,4.92992358422234,-0.00425232719163837,1,15.5,29.9
0.6,11.8072549850718,11.8781648624235,4.92567197643936,-0.00425160778297595,1,15.5,29.9
0.633333333333333,11.8079397428335,12.0422816531059,4.92142136824471,-0.00425060819465184,1,15.5,29.9
0.666666666666667,11.8086464276356,12.2062566819539,4.91717195140096,-0.00424941684374858,1,15.5,29.9
0.7,11.8093771811675,12.3700899782921,4.91292385308429,-0.00424809831667083,1,15.5,29.9
0.733333333333333,11.8101338594949,12.533781575223,4.9086771536273,-0.00424669945699119,1,15.5,29.9
0.766666666666667,11.8109178315296,12.697331509379,4.90443190017921,-0.00424525344808657,1,15.5,29.9
0.8,11.811729883458,12.8607398207623,4.90018811775237,-0.00424378242684043,1,15.5,29.9
0.833333333333333,11.8125702288437,13.0240065524953,4.89594581842577,-0.00424229932660491,1,15.5,29.9
0.866666666666667,11.8134386053818,13.1871317503978,4.89170500878016,-0.00424080964560503,1,15.5,29.9
0.9,11.8143344263701,13.3501154623964,4.88746569522803,-0.00423931355213458,1,15.5,29.9
0.933333333333333,11.8152569500574,13.5129577378324,4.88322788693599,-0.00423780829203224,1,15.5,29.9
0.966666666666667,11.8162054331906,13.6756586267717,4.87899159642983,-0.00423629050615926,1,15.5,29.9
1,11.8171792444998,13.8382181794158,4.87475683845121,-0.00423475797862771,1,15.5,29.9
1.03333333333333,11.8181779265526,14.0006364456865,4.8705236279319,-0.00423321051930703,1,15.5,29.9
1.06666666666667,11.8192012071115,14.1629134750151,4.86629197794599,-0.00423164998590586,1,15.5,29.9
1.1,11.8202489710919,14.3250493163202,4.86206189825047,-0.00423007969552369,1,15.5,29.9
1.13333333333333,11.8213212097714,14.4870440181245,4.8578333946816,-0.00422850356886606,1,15.5,29.9
1.16666666666667,11.8224179646653,14.6488976287402,4.85360646937522,-0.00422692530638002,1,15.5,29.9
1.2,11.8235392802337,14.8106101964544,4.84938112158985,-0.0042253477853782,1,15.5,29.9
1.23333333333333,11.8246851738795,14.9721817696607,4.84515734883308,-0.00422377275676489,1,15.5,29.9
1.26666666666667,11.8258556253532,15.133612396913,4.84093514799583,-0.00422220083724945,1,15.5,29.9
1.3,11.8270505823219,15.2949021269016,4.83671451625832,-0.00422063173750864,1,15.5,29.9
1.33333333333333,11.8282699755511,15.4560510083769,4.83249545162714,-0.00421906463118571,1,15.5,29.9
1.36666666666667,11.8295137362522,15.6170590900564,4.82827795307237,-0.0042174985547625,1,15.5,29.9
1.4,11.8307818093758,15.777926420549,4.82406202033432,-0.00421593273805332,1,15.5,29.9
1.43333333333333,11.8320741592225,15.9386530483208,4.81984765353551,-0.00421436679881104,1,15.5,29.9
1.46666666666667,11.8333907667605,16.0992390217112,4.81563485275395,-0.0042128007815565,1,15.5,29.9
1.5,11.8347316206144,16.2596843889907,4.81142361768912,-0.00421123506483845,1,15.5,29.9
1.53333333333333,11.8360967052393,16.4199891984418,4.8072139474991,-0.00420967019001939,1,15.4916666666667,29.9
1.56666666666667,11.8374859900988,16.5801534984375,4.80300584082554,-0.00420810667355997,1,15.4666666666667,29.9
1.6,11.8388994228762,16.7401773374964,4.79879929596918,-0.00420654485635641,1,15.425,29.9
1.63333333333333,11.8403363634691,16.9000607685146,4.79459423413895,-0.00420506183022873,1,15.3752276867031,29.9
1.66666666666667,11.8417942148311,17.0598038596313,4.79039061809153,-0.00420361604741704,1,15.3259107468124,29.9
1.7,11.8432700979523,17.2194066826868,4.78618842720233,-0.00420219088920071,1,15.2770491803279,29.9
1.73333333333333,11.8447594429314,17.3788693245003,4.78198760729313,-0.0042008199092054,1,15.2286429872495,29.9
1.76666666666667,11.8462556725549,17.5381918904502,4.77778809472049,-0.00419951257264195,1,15.1806921675774,29.9
1.8,11.8477494494285,17.6973745115667,4.77358993294155,-0.00419816177893484,1,15.1331967213115,29.9
1.83333333333333,11.8492317086512,17.8564173202475,4.76939328077071,-0.00419665217084386,1,15.0861566484517,29.9
1.86666666666667,11.8506952020294,18.0153204359394,4.76519831519025,-0.00419496558046006,1,15.0395719489982,29.9
1.9,11.8521366364499,18.1740839451263,4.7610051458289,-0.00419316936134528,1,14.9934426229508,29.9
1.93333333333333,11.8535563029755,18.3327079025577,4.75681376873535,-0.00419137709354711,1,14.9477686703097,29.9
1.96666666666667,11.8549569826658,18.4911923398744,4.75262412454132,-0.00418964419403078,1,14.9025500910747,29.9
2,11.8563429511477,18.6495372743277,4.74843614499558,-0.00418797954574046,1,14.8577868852459,29.9
2.03333333333333,11.8577191611826,18.8077427163061,4.74424977750432,-0.00418636749126566,1,14.8134790528233,29.9
2.06666666666667,11.8590906235002,18.965808675102,4.74006499110318,-0.00418478640113396,1,14.7696265938069,29.9
2.1,11.8604619687929,19.1237351629207,4.73588177206847,-0.00418321903471774,1,14.7262295081967,29.9
2.13333333333333,11.8618371576505,19.2815221974424,4.73170011633869,-0.00418165572977358,1,14.6832877959927,29.9
2.16666666666667,11.8632193051991,19.4391698033162,4.72752002289182,-0.00418009344687587,1,14.6408014571949,29.9
2.2,11.8646105959323,19.596678012888,4.72334148959161,-0.00417853330020801,1,14.5987704918033,29.9
2.23333333333333,11.8660122745448,19.7540468663308,4.71916451151797,-0.0041769780736427,1,14.5571948998179,29.9
2.26666666666667,11.8674247054173,19.9112764112415,4.71498908120467,-0.00417543031329703,1,14.5160746812386,29.9
2.3,11.868847494524,20.0683667017287,4.71081519006023,-0.00417389114443711,1,14.4754098360656,29.9
2.33333333333333,11.8702796634932,20.2253177970385,4.70664283023782,-0.00417235982241326,1,14.4352003642987,29.9
2.36666666666667,11.8717190974574,20.3820429291918,4.69726205765943,-0.00938077257838899,1,14.3954462659381,29.9
2.4,11.8731607263516,20.5381381794094,4.66885315516212,-0.028408902497314,3,14.3561475409836,29.9
2.43333333333333,11.8745977057779,20.692998066089,4.6231414461555,-0.0457117090066168,3,14.3173041894353,29.9
2.46666666666667,11.8760251202321,20.8462192259848,4.57052903329715,-0.0526124128583518,3,14.2789162112933,29.9
2.5,11.8774398470944,20.9975717053843,4.51101903111251,-0.0595100021846369,3,14.2409836065574,29.9
2.53333333333333,11.8788395895206,21.1468830496331,4.44805862300739,-0.0629604081051163,3,14.2035063752277,29.9
2.56666666666667,11.8802228746399,21.2940382879875,4.38165010911313,-0.0664085138942685,3,14.1664845173042,29.9
2.6,11.8815882336053,21.438893815511,4.31007333728663,-0.0715767718264937,3,14.1299180327869,29.9
2.63333333333333,11.8829322879624,21.5810753907357,4.22121005580297,-0.0888632814836647,3,14.0938069216758,29.9
2.66666666666667,11.8842509431448,21.7201224027512,4.12199598746506,-0.0992140683379095,3,14.0581511839709,29.9
2.7,11.885541649918,21.8557476524628,4.01590043253952,-0.10609555492554,3,14.0229508196721,29.9
2.73333333333333,11.8868025596566,21.9877505101478,3.90464827364629,-0.111252158893232,3,13.9882058287796,29.9
2.76666666666667,11.8880314339608,22.1159013696793,3.78477577676575,-0.119872496880538,3,13.9539162112933,29.9
2.8,11.8892259001633,22.2399707120258,3.65975151750275,-0.125024259262997,3,13.9200819672131,29.9
2.83333333333333,11.890383993764,22.3597868651143,3.52957756343173,-0.13017395407102,3,13.9200819672131,29.9
2.86666666666667,11.8915033858501,22.4751491629779,3.39251189067744,-0.137065672754292,3,13.9200819672131,29.9
2.9,11.8925814159403,22.5858283073231,3.2485783283705,-0.143933562306934,3,13.9200819672131,29.9
2.93333333333333,11.8936153886288,22.6915954322707,3.09777893586854,-0.150799392501967,3,13.9200819672131,29.9
2.96666666666667,11.8946031288694,22.7922791427041,2.94356003677068,-0.154218899097857,3,13.9200819672131,29.9
3,11.8955421884487,22.8876790371434,2.7807350809793,-0.162824955791385,3,13.9200819672131,29.9
3.03333333333333,11.8964295841523,22.9775373709625,2.61105008254918,-0.169684998430116,3,13.9200819672131,29.9
3.06666666666667,11.8972631452751,23.0616829302829,2.43795128189155,-0.173098800657628,3,13.9200819672131,29.9
3.1,11.8980412469249,23.140001957699,2.26144018482656,-0.176511097064992,3,13.9200819672131,29.9
3.13333333333333,11.8987625886767,23.2124120983935,2.08356732892033,-0.17787285590623,3,13.9200819672131,29.9
3.16666666666667,11.8994265030556,23.2788932063502,1.905934425755,-0.177632903165325,3,13.9200819672131,29.9
3.2,11.9000325343504,23.3394419295928,1.72767766822244,-0.178256757532566,3,13.9200819672131,29.9
3.23333333333333,11.900580439973,23.394071192326,1.55077139849563,-0.176906269726805,3,13.9200819672131,29.9
3.26666666666667,11.9010706398371,23.442857071527,1.37706775367289,-0.173703644822744,3,13.9200819672131,29.9
3.3,11.9015039166501,23.4859072164575,1.20661513253477,-0.17045262113812,3,13.9200819672131,29.9
3.33333333333333,11.9018811199796,23.5233301638601,1.03942398760089,-0.167191144933876,3,13.9200819672131,29.9
3.36666666666667,11.9022031695781,23.5552363897197,0.875635474031283,-0.16378851356961,3,13.9200819672131,29.9
3.4,11.9024710841483,23.5817421837272,0.715375208582646,-0.160260265448637,3,13.9200819672131,29.9
3.43333333333333,11.9026859130576,23.6029634352709,0.558539459600775,-0.15683574898187,3,13.9200819672131,29.9
3.46666666666667,11.9028487167726,23.6190144803665,0.405170830847168,-0.153368628753607,3,13.9200819672131,29.9
3.5,11.9029605933876,23.630011671523,0.255296889150646,-0.149873941696522,3,13.9200819672131,29.9
3.53333333333333,11.9030226402531,23.6360700825238,0.108884951961484,-0.146411937189162,3,13.9200819672131,29.9
3.56666666666667,11.9030402675691,23.6377532572319,0.0313933633867861,-0.0774915885746978,3,13.9200819672131,29.9
3.6,11.9030409983148,23.6379267150778,0.0456328849018489,0.0142395215150628,5,13.9200819672131,29.9
3.63333333333333,11.9030230348502,23.6364133188395,0.00547397127633063,-0.0401589136255183,3,13.9200819672131,29.9
3.66666666666667,11.9030230348502,23.6364133188395,0.00677944948390452,0.00130547820757389,5,13.9200819672131,29.9
3.7,11.9030230348502,23.6364133188395,0.00837552477093827,0.00159607528703375,5,13.9200819672131,29.9
3.73333333333333,11.9030230348502,23.6364133188395,0.0101088092568538,0.00173328448591549,5,13.9200819672131,29.9
3.76666666666667,11.9030230348502,23.6364133188395,0.0117958351649864,0.00168702590813264,5,13.9200819672131,29.9
3.8,11.9030230348502,23.6364133188395,0.0132492312921267,0.00145339612714034,5,13.9200819672131,29.9
3.83333333333333,11.9030230348502,23.6364133188395,0.0143002717780063,0.00105104048587961,5,13.9200819672131,29.9
3.86666666666667,11.9030230348502,23.6364133188395,0.0148163896921254,0.000516117914119072,5,13.9200819672131,29.9
3.9,11.9030230348502,23.6364133188395,0.0147128937495998,-0.000103495942525615,5,13.9200819672131,29.9
3.93333333333333,11.9030230348502,23.6364133188395,0.013958724076484,-0.000754169673115796,5,13.9200819672131,29.9
3.96666666666667,11.9030230348502,23.6364133188395,0.0125765955740081,-0.00138212850247591,5,13.9200819672131,29.9
4,11.9030230348502,23.6364133188395,0.0106382806436543,-0.00193831493035379,5,13.9200819672131,29.9
4.03333333333333,11.9030230348502,23.6364133188395,0.00825606442464743,-0.00238221621900687,5,13.9200819672131,29.9
4.06666666666667,11.9030230348502,23.6364133188395,0.00557156377066697,-0.00268450065398045,5,13.9200819672131,29.9
4.1,11.9030230348502,23.6364133188395,0.00274314368195638,-0.00282842008871059,5,13.9200819672131,29.9
4.13333333333333,11.9030230348502,23.6364133188395,6.68932988326493e-05,-0.00267625038312373,5,13.9200819672131,29.9
4.16666666666667,11.9030230348502,23.6364133188395,0.00270430829740245,0.0026374149985698,5,13.9200819672131,29.9
4.2,11.9030230348502,23.6364133188395,0.00503327888550747,0.00232897058810501,5,13.9200819672131,29.9
4.23333333333333,11.9030230348502,23.6364133188395,0.00694449683197022,0.00191121794646276,5,13.9200819672131,29.9
4.26666666666667,11.9030230348502,23.6364133188395,0.00836064954177132,0.0014161527098011,5,13.9200819672131,29.9
4.3,11.9030230348502,23.6364133188395,0.00923916233789399,0.000878512796122671,5,13.9200819672131,29.9
4.33333333333333,11.9030230348502,23.6364133188395,0.0095722940511236,0.000333131713229608,5,13.9200819672131,29.9
4.36666666666667,11.9030230348502,23.6364133188395,0.00938485837947792,-0.000187435671645678,5,13.9200819672131,29.9
4.4,11.9030230348502,23.6364133188395,0.00872998028165874,-0.000654878097819183,5,13.9200819672131,29.9
4.43333333333333,11.9030230348502,23.6364133188395,0.00768338659826923,-0.00104659368338951,5,13.9200819672131,29.9
4.46666666666667,11.9030230348502,23.6364133188395,0.00633677329278894,-0.00134661330548029,5,13.9200819672131,29.9
4.5,11.9030230348502,23.6364133188395,0.00479079155270623,-0.0015459817400827,5,13.9200819672131,29.9
4.53333333333333,11.9030230348502,23.6364133188395,0.00314815739438931,-0.00164263415831692,5,13.9200819672131,29.9
4.56666666666667,11.9030230348502,23.6364133188395,0.00150732202201893,-0.00164083537237039,5,13.9200819672131,29.9
4.6,11.9030230348502,23.6364133188395,4.29483858234989e-05,-0.00146437363619543,5,13.9200819672131,29.9
4.63333333333333,11.9030230348502,23.6364133188395,0.00142783569934059,0.00138488731351709,5,13.9200819672131,29.9
4.66666666666667,11.9030230348502,23.6364133188395,0.00258943270266176,0.00116159700332117,5,13.9200819672131,29.9
4.7,11.9030230348502,23.6364133188395,0.00348836397294703,0.000898931270285276,5,13.9200819672131,29.9
4.73333333333333,11.9030230348502,23.6364133188395,0.00410411417931996,0.00061575020637292,5,13.9200819672131,29.9
4.76666666666667,11.9030230348502,23.6364133188395,0.00443418980607892,0.000330075626758969,5,13.9200819672131,29.9
4.8,11.9030230348502,23.6364133188395,0.00449229915835707,5.81093522781413e-05,5,13.9200819672131,29.9
4.83333333333333,11.9030230348502,23.6364133188395,0.00430577510350194,-0.00018652405485513,5,13.9200819672131,29.9
4.86666666666667,11.9030230348502,23.6364133188395,0.00391248529391005,-0.000393289809591887,5,13.9200819672131,29.9
4.9,11.9030230348502,23.6364133188395,0.00335747682797181,-0.00055500846593824,5,13.9200819672131,29.9
4.93333333333333,11.9030230348502,23.6364133188395,0.00268958866334674,-0.000667888164625066,5,13.9200819672131,29.9
4.96666666666667,11.9030230348502,23.6364133188395,0.00195823854971609,-0.000731350113630655,5,13.9200819672131,29.9
5,11.9030230348502,23.6364133188395,0.00121055517355987,-0.000747683376156219,5,13.9200819672131,29.9
5.03333333333333,11.9030230348502,23.6364133188395,0.00048898413301611,-0.000721571040543758,5,13.9200819672131,29.9
5.06666666666667,11.9030230348502,23.6364133188395,0.000170548282981139,-0.000318435850034971,5,13.9200819672131,29.9
5.1,11.9030230348502,23.6364133188395,0.000739873622766102,0.000569325339784964,5,13.9200819672131,29.9
5.13333333333333,11.9030230348502,23.6364133188395,0.00119922307849155,0.000459349455725444,5,13.9200819672131,29.9
5.16666666666667,11.9030230348502,23.6364133188395,0.00153730907358326,0.00033808599509171,5,13.9200819672131,29.9
5.2,11.9030230348502,23.6364133188395,0.00175091185212132,0.000213602778538063,5,13.9200819672131,29.9
5.23333333333333,11.9030230348502,23.6364133188395,0.00184405733933923,9.31454872179131e-05,5,13.9200819672131,29.9
5.26666666666667,11.9030230348502,23.6364133188395,0.00182688565464845,-1.71716846907857e-05,5,13.9200819672131,29.9
5.3,11.9030230348502,23.6364133188395,0.00171431509562398,-0.000112570559024469,5,13.9200819672131,29.9
5.33333333333333,11.9030230348502,23.6364133188395,0.00152460487053754,-0.000189710225086438,5,13.9200819672131,29.9
5.36666666666667,11.9030230348502,23.6364133188395,0.00127791236790451,-0.000246692502633036,5,13.9200819672131,29.9
5.4,11.9030230348502,23.6364133188395,0.000994928565913634,-0.000282983801990871,5,13.9200819672131,29.9
5.43333333333333,11.9030230348502,23.6364133188395,0.000695659668307863,-0.00029926889760577,5,13.9200819672131,29.9
5.46666666666667,11.9030230348502,23.6364133188395,0.000398405586213513,-0.000297254082094351,5,13.9200819672131,29.9
5.5,11.9030230348502,23.6364133188395,2.03553459426373e-05,-0.000378050240270876,5,13.9200819672131,29.9
5.53333333333333,11.9030272912905,23.6368566016973,0.0234489969017567,0.0234286415558141,4,13.9200819672131,29.9
5.56666666666667,11.9030405076917,23.6382329917056,0.0590949067586857,0.035645909856929,4,13.9200819672131,29.9
5.6,11.9030656173552,23.6408475874798,0.0977147016068225,0.0386197948481368,4,13.9200819672131,29.9
5.63333333333333,11.9031024457297,23.6446810437924,0.132213907623818,0.0344992060169951,4,13.9200819672131,29.9
5.66666666666667,11.9031507785461,23.6497084679302,0.169348319348067,0.0371344117242496,4,13.9200819672131,29.9
5.7,11.9032109322359,23.6559585508792,0.205570759386067,0.0362224400379998,4,13.9200819672131,29.9
5.73333333333333,11.90328377224,23.6635151366744,0.24773513545046,0.042164376064393,4,13.9200819672131,29.9
5.76666666666667,11.9033710039669,23.6725470155857,0.294095219746336,0.046360084295876,4,13.9200819672131,29.9
5.8,11.9034732555075,23.6831075794865,0.339459476358181,0.045364256611845,4,13.9200819672131,29.9
5.83333333333333,11.9035903610874,23.6951639272782,0.38384304744139,0.0443835710832091,4,13.9200819672131,29.9
5.86666666666667,11.9037221949811,23.7086836513263,0.42726092306746,0.0434178756260701,4,13.9200819672131,29.9
5.9,11.9038686698096,23.7236348247449,0.469727206136562,0.0424662830691018,4,13.9200819672131,29.9
5.93333333333333,11.9040297306028,23.7399857643384,0.511239397439363,0.0415121913028006,4,13.9200819672131,29.9
5.96666666666667,11.904205342899,23.7577043878551,0.551782643405539,0.0405432459661764,4,13.9200819672131,29.9
6,11.9043954854707,23.7767582554372,0.591351753137203,0.0395691097316643,4,13.9200819672131,29.9
6.03333333333333,11.904600144046,23.7971148888916,0.629949673585482,0.0385979204482788,4,13.9200819672131,29.9
6.06666666666667,11.904819302955,23.8187420070168,0.66758510235821,0.0376354287727279,4,13.9200819672131,29.9
6.1,11.9050529109093,23.8416077127236,0.704274378851238,0.036689276493028,4,13.9200819672131,29.9
6.13333333333333,11.9053007739908,23.8656812213532,0.740070857767643,0.0357964789164056,4,13.9200819672131,29.9
6.16666666666667,11.9055624571078,23.8909338121596,0.775035447512817,0.0349645897451734,4,13.9200819672131,29.9
6.2,11.9058370411187,23.9173386025833,0.809217115519928,0.0341816680071111,4,13.9200819672131,29.9
6.23333333333333,11.9061230752711,23.9448702036502,0.842656000822813,0.0334388853028851,4,13.9200819672131,29.9
