Time,x_ego,y_ego,velocity,acceleration,action,x_ped,y_ped
0,11.8,15.9,7,0,1,15.5,29.9
0.0333333333333333,11.7999901209831,16.1332703793582,6.99615582775301,-0.00384417224699174,1,15.5,29.9
0.0666666666666667,11.7999283079154,16.3664065973968,6.99197000361386,-0.00418582413914592,1,15.5,29.9
0.1,11.7997811053898,16.599400742547,6.98769680580286,-0.00427319781100444,1,15.5,29.9
0.133333333333333,11.7995311648256,16.8322537286952,6.98350146580858,-0.0041953399942809,1,15.5,29.9
0.166666666666667,11.7991724359621,17.0649677100625,6.97936195786056,-0.00413950794801643,1,15.5,29.9
0.2,11.7987058581477,17.2975442188059,6.97526236201189,-0.00409959584867181,1,15.5,29.9
0.233333333333333,11.7981360596559,17.5299843461649,6.97119130440773,-0.0040710576041576,1,15.5,29.9
0.266666666666667,11.7974691740079,17.7622888731013,6.96714074072953,-0.004050563678204,1,15.5,29.9
0.3,11.7967124141733,17.9944583642056,6.96310488401432,-0.00403585671521078,1,15.5,29.9
0.333333333333333,11.79587532532,18.2264932371088,6.95907969482389,-0.00402518919042727,1,15.5,29.9
0.366666666666667,11.7949663094367,18.4583938042607,6.9550624475277,-0.00401724729618813,1,15.5,29.9
0.4,11.7939919681248,18.6901603013726,6.9510511957113,-0.00401125181639639,1,15.5,29.9
0.433333333333333,11.7929574328615,18.9217929078134,6.94704453092318,-0.00400666478812717,1,15.5,29.9
0.466666666666667,11.7918665993686,19.1532917609308,6.94304142856348,-0.0040031023596967,1,15.5,29.9
0.5,11.7907222456611,19.3846569661545,6.9390411453406,-0.00400028322287671,1,15.5,29.9
0.533333333333333,11.7895260795138,19.6158886041688,6.93504314659502,-0.00399799874558315,1,15.5,29.9
0.566666666666667,11.7882787836447,19.8469867361361,6.93104705154727,-0.00399609504775356,1,15.5,29.9
0.6,11.78698011536,20.0779514077175,6.9270525905397,-0.00399446100756951,1,15.5,29.9
0.633333333333333,11.7856290866712,20.3087826524213,6.92305957162026,-0.00399301891943793,1,15.5,29.9
0.666666666666667,11.7842242162961,20.5394804945958,6.91906785521935,-0.00399171640090579,1,15.5,29.9
0.7,11.7827638182815,20.7700449521945,6.91507733596469,-0.00399051925466321,1,15.5,29.9
0.733333333333333,11.7812462796554,21.0004760392903,6.91108793054538,-0.00398940541931125,1,15.5,29.9
0.766666666666667,11.7796702823431,21.2307737682298,6.90709957040833,-0.00398836013704962,1,15.5,29.9
0.8,11.7780349390993,21.4609381512896,6.90311219806269,-0.00398737234563562,1,15.5,29.9
0.833333333333333,11.7763398335639,21.6909692017426,6.89912576581457,-0.00398643224812734,1,15.5,29.9
0.866666666666667,11.7745849745969,21.9208669343191,6.89514023580488,-0.00398553000968338,1,15.5,29.9
0.9,11.7727706899462,22.1506313651456,6.89115558032793,-0.00398465547695359,1,15.5,29.9
0.933333333333333,11.770897491426,22.3802625113152,6.8871717816473,-0.00398379868062637,1,15.5,29.9
0.966666666666667,11.7689659428939,22.6097603902851,6.88318883090914,-0.00398295073815991,1,15.5,29.9
1,11.7669765551142,22.8391250192836,6.87920672618135,-0.00398210472779681,1,15.5,29.9
1.03333333333333,11.7649297208834,23.0683564148668,6.87522546998052,-0.00398125620083167,1,15.5,29.9
1.06666666666667,11.7628256926186,23.2974545927002,6.8712450667891,-0.00398040319141035,1,15.5,29.9
1.1,11.7606645954761,23.5264195675707,6.86726552101013,-0.00397954577897774,1,15.5,29.9
1.13333333333333,11.7584464634965,23.755251353582,6.86328683562754,-0.0039786853825845,1,15.5,29.9
1.16666666666667,11.7561712846626,23.9839499644509,6.85930901163099,-0.00397782399655444,1,15.5,29.9
1.2,11.7538390425493,24.2125154138184,6.85533204809383,-0.00397696353715737,1,15.5,29.9
1.23333333333333,11.7514497462433,24.4409477155001,6.8513559426937,-0.00397610540013549,1,15.5,29.9
1.26666666666667,11.7490034450236,24.6692468836337,6.8473806924342,-0.00397525025949097,1,15.5,29.9
1.3,11.7465002286613,24.8974129327116,6.84340629435038,-0.00397439808382494,1,15.5,29.9
1.33333333333333,11.7439402172538,25.1254458775174,6.83943274604008,-0.00397354831030317,1,15.5,29.9
1.36666666666667,11.7413235459055,25.3533457330053,6.83546004594112,-0.00397270009895134,1,15.5,29.9
1.4,11.7386503493865,25.5811125141636,6.83148819335083,-0.0039718525902952,1,15.5,29.9
1.43333333333333,11.73592075058,25.8087462362751,6.8275172411637,-0.00397095218713428,1,15.5,29.9
1.46666666666667,11.7331348545492,26.0362469255003,6.8235479859422,-0.0039692552214925,1,15.5,29.9
1.5,11.730292748122,26.2636146551811,6.81958240775297,-0.00396557818923249,1,15.5,29.9
1.53333333333333,11.7273945039275,26.4908495786141,6.81562330499112,-0.00395910276185152,1,15.4777777777778,29.9
1.56666666666667,11.7244401868145,26.7179519551094,6.81167423716167,-0.00394906782944471,1,15.4111111111111,29.9
1.6,11.7214298604387,26.9449221728914,6.80773931690945,-0.00393492025222031,1,15.3,29.9
1.63333333333333,11.7183635923921,27.1717607610844,6.80382281104007,-0.00391650586937953,1,15.1698412698413,29.9
1.66666666666667,11.7152414569717,27.3984683874528,6.7999286746465,-0.00389413639357716,1,15.0460317460317,29.9
1.7,11.7120635354974,27.6250458388738,6.79606001517736,-0.00386865946913861,1,14.9285714285714,29.9
1.73333333333333,11.7088299146673,27.8514939889432,6.7922189374752,-0.00384107770215625,1,14.8174603174603,29.9
1.76666666666667,11.7055406837009,28.0778137663122,6.78840664544098,-0.00381229203422606,1,14.7126984126984,29.9
1.8,11.7021959312405,28.3040061258421,6.78462352263438,-0.00378312280659543,1,14.6142857142857,29.9
1.83333333333333,11.6987957428341,28.5300720230605,6.78086924838137,-0.00375427425301389,1,14.5222222222222,29.9
1.86666666666667,11.6953401994795,28.7560123939982,6.77714301524373,-0.00372623313764198,1,14.4365079365079,29.9
1.9,11.6918293773603,28.9818281409756,6.77344359314153,-0.00369942210219953,1,14.3571428571429,29.9
1.93333333333333,11.6882633354676,29.2075210522456,6.76991243223745,-0.00353116090407291,1,14.284126984127,29.9
1.96666666666667,11.6846418082442,29.4331152590786,6.76792092382388,-0.00199150841357465,1,14.2174603174603,29.9
2,11.6809636344937,29.658695339377,6.76933709602534,0.00141617220146362,1,14.1571428571429,29.9
2.03333333333333,11.6772269791427,29.8843875894159,6.77469606762904,0.00535897160370169,1,14.1031746031746,29.9
2.06666666666667,11.6734298860807,30.110319941331,6.78374302015871,0.00904695252966903,1,14.0555555555556,29.9
2.1,11.6695704633504,30.3366087312287,6.79606508948005,0.0123220693213337,1,14.0142857142857,29.9
2.13333333333333,11.6656469412997,30.563354877189,6.811157192338,0.0150921028579543,1,13.9793650793651,29.9
2.16666666666667,11.661657710537,30.7906419397842,6.82850270819924,0.0173455158612388,1,13.9507936507936,29.9
2.2,11.6576013181292,31.0185372667817,6.84764893391985,0.0191462257206068,4,13.9285714285714,29.9
2.23333333333333,11.6534772773205,31.2470942754216,6.8682115972472,0.0205626633273521,4,13.9126984126984,29.9
2.26666666666667,11.6492887224118,31.4763547447394,6.88987212052449,0.021660523277288,4,13.9031746031746,29.9
2.3,11.6450424028077,31.7063509233962,6.91237201772745,0.0224998972029642,4,13.9,29.9
2.33333333333333,11.6407500909967,31.9371075030741,6.93551520493922,0.0231431872117698,4,13.9,29.9
2.36666666666667,11.6364278039651,32.1686447756052,6.95924953641469,0.0237343314754748,4,13.9,29.9
2.4,11.6320957452743,32.400985620102,6.98379563164233,0.0245460952276355,4,13.9,29.9
2.43333333333333,11.6277743958861,32.6341650494939,7.00964472017158,0.0258490885292497,4,13.9,29.9
2.46666666666667,11.6234847726158,32.8682379699833,7.03746490201345,0.0278201818418724,4,13.9,29.9
2.5,11.619245023378,33.1032786071915,7.06768670893649,0.0302218069230404,4,13.9,29.9
2.53333333333333,11.6150686255484,33.339369963587,7.10043067286786,0.0327439639313631,4,13.9,29.9
2.56666666666667,11.6109598692799,33.5765960973635,7.13569139511569,0.0352607222478376,4,13.9,29.9
2.6,11.6069159899022,33.8150402226926,7.17340887848046,0.0377174833647631,4,13.9,29.9
2.63333333333333,11.602930443544,34.054780832877,7.21336716843335,0.0399582899528887,4,13.9,29.9
2.66666666666667,11.598995207523,34.2958881064321,7.25530413530251,0.0419369668691667,4,13.9,29.9
2.7,11.5951021719311,34.5384235233697,7.29896135908794,0.0436572237854254,4,13.9,29.9
2.73333333333333,11.5912438875411,34.7824401946162,7.34409617046298,0.0451348113750409,4,13.9,29.9
2.76666666666667,11.5874139094248,35.0279834856539,7.39048420912259,0.0463880386596136,4,13.9,29.9
2.8,11.5836069314047,35.2750914416571,7.43790599322072,0.0474217840981304,4,13.9,29.9
2.83333333333333,11.5798188356515,35.5237946613243,7.48613332669173,0.0482273334710097,4,13.9,29.9
2.86666666666667,11.5760467017632,35.7741162064248,7.53494441612917,0.0488110894374341,4,13.9,29.9
2.9,11.5722887758382,36.0260720942304,7.58413882121237,0.049194405083206,4,13.9,29.9
2.93333333333333,11.568544396438,36.2796718615628,7.63351879984248,0.0493799786301059,4,13.9,29.9
2.96666666666667,11.5648138788778,36.5349183321443,7.68289064699574,0.0493718471532594,4,13.9,29.9
3,11.5610983226992,36.7918087736067,7.73211379282604,0.0492231458302985,4,13.9,29.9
3.03333333333333,11.5573993700001,37.0503366795825,7.78110798279623,0.0489941899701938,4,13.9,29.9
3.06666666666667,11.5537189441495,37.3104940087074,7.82984954772149,0.0487415649252645,4,13.9,29.9
3.1,11.550059028998,37.5722719207311,7.87831096111391,0.0484614133924195,4,13.9,29.9
3.13333333333333,11.5464215075208,37.8356604148353,7.92644555116676,0.0481345900528485,4,13.9,29.9
3.16666666666667,11.5428080647281,38.1006475718047,7.97419432917503,0.0477487780082644,4,13.9,29.9
3.2,11.5392201360226,38.367219933245,8.02152473750429,0.0473304083292598,4,13.9,29.9
3.23333333333333,11.5356589049788,38.6353632708157,8.06842128950024,0.0468965519959568,4,13.9,29.9
3.26666666666667,11.5321253460204,38.9050629910268,8.11487666466449,0.0464553751642445,4,13.9,29.9
3.3,11.5286202917328,39.1763042440912,8.16088086668708,0.0460042020225959,4,13.9,29.9
3.33333333333333,11.525144507689,39.4490716570607,8.20641082726242,0.0455299605753403,4,13.8991319444444,29.9
