Time,x_ego,y_ego,velocity,acceleration,action,x_ped,y_ped
0,11.8,8.9,7,0,1,15.5,29.9
0.0333333333333333,11.7999975091174,9.13327037939202,6.99615578259574,-0.003844217404259,1,15.3694444444444,29.9
0.0666666666666667,11.7999819236524,9.36640659872134,6.99196950494788,-0.0041862776478645,1,15.2444444444444,29.9
0.1,11.7999448082122,9.59940075446968,6.9876951028062,-0.0042744021416814,1,15.125,29.9
0.133333333333333,11.7998817885687,9.83225378168658,6.98349789683301,-0.00419720597318296,1,15.0111111111111,29.9
0.166666666666667,11.7997913392459,10.0649678694119,6.97935624257674,-0.00414165425627111,1,14.9027777777778,29.9
0.2,11.7996736971216,10.2975445932427,6.97525462048206,-0.00410162209468456,1,14.8,29.9
0.233333333333333,11.7995300291929,10.5299850894809,6.97118191091701,-0.00407270956505013,1,14.7027777777778,29.9
0.266666666666667,11.7993618819806,10.7622901799815,6.96713015182141,-0.00405175909559574,1,14.6111111111111,29.9
0.3,11.7991708727963,10.9944604615601,6.96309364362937,-0.00403650819203882,1,14.525,29.9
0.333333333333333,11.7989585505794,11.2264963699647,6.95906830588633,-0.00402533774304548,1,14.4444444444444,29.9
0.366666666666667,11.7987263504796,11.4583982256298,6.95505121626165,-0.00401708962467229,1,14.3694444444444,29.9
0.4,11.7984755820345,11.6901662663942,6.95104028107019,-0.00401093519146478,1,14.3,29.9
0.433333333333333,11.7982074150447,11.9218006708935,6.94703400001742,-0.00400628105276901,1,14.2361111111111,29.9
0.466666666666667,11.7979228510536,12.1533015752782,6.94303129812253,-0.00400270189489316,1,14.1777777777778,29.9
0.5,11.7976226857613,12.38466908516,6.93903140541881,-0.0039998927037157,1,14.125,29.9
0.533333333333333,11.7973074762541,12.6159032841509,6.93503377064413,-0.0039976347746844,1,14.0777777777778,29.9
0.566666666666667,11.7969775271659,12.8470042399794,6.93103799918974,-0.00399577145438723,1,14.0361111111111,29.9
0.6,11.7966329043038,13.0779720088869,6.92704380845852,-0.00399419073122154,1,14,29.9
0.633333333333333,11.7962736977477,13.3086042697513,6.91090908739835,-0.016134721060169,1,13.9694444444444,29.9
0.666666666666667,11.7959002935151,13.5383528492411,6.87402479341319,-0.0368842939851595,3,13.9444444444444,29.9
0.7,11.7955130800877,13.766699081377,6.82677005888364,-0.047254734529548,3,13.925,29.9
0.733333333333333,11.7951122425724,13.9933837859378,6.77433495495434,-0.0524351039293043,3,13.9111111111111,29.9
0.766666666666667,11.7946979582512,14.218263006651,6.71844293089156,-0.0558920240627812,3,13.9027777777778,29.9
0.8,11.7942705215384,14.4412218907348,6.65911682827245,-0.0593261026191056,3,13.9,29.9
0.833333333333333,11.7938302955518,14.6622033853682,6.59980178591175,-0.0593150423607005,3,13.9,29.9
0.866666666666667,11.7933776831607,14.8812078621702,6.54049818769448,-0.0593035982172658,3,13.9,29.9
0.9,11.7929132669586,15.0981779359278,6.47774024671706,-0.0627579409774208,3,13.9,29.9
0.933333333333333,11.7924377805092,15.3129984701571,6.41152851348611,-0.0662117332309524,3,13.9,29.9
0.966666666666667,11.7919520380007,15.5255256466516,6.34014143091605,-0.0713870825700589,3,13.9,29.9
1,11.7914575238185,15.7356734417248,6.26876786292397,-0.0713735679920857,3,13.9,29.9
1.03333333333333,11.7909581892257,15.9433845539768,6.19394196374258,-0.0748258991813815,3,13.9,29.9
1.06666666666667,11.7904575020729,16.1485152261412,6.11394220496567,-0.0799997587769186,3,13.9,29.9
1.1,11.7899583558389,16.3509220868289,6.03051329045891,-0.0834289145067562,3,13.9,29.9
1.13333333333333,11.789464853962,16.5505482603098,5.9471000949712,-0.0834131954877053,3,13.9,29.9
1.16666666666667,11.7889799048924,16.7473365166535,5.86023685024113,-0.0868632447300737,3,13.9,29.9
1.2,11.7885055830966,16.9412296373289,5.77339013786187,-0.0868467123792653,3,13.9,29.9
1.23333333333333,11.7880451334262,17.1322281831541,5.68656011910716,-0.0868300187547071,3,13.9,29.9
1.26666666666667,11.7876005656387,17.320332714771,5.59974688727219,-0.0868132318349701,3,13.9,29.9
1.3,11.7871723149242,17.505543789869,5.51295046065128,-0.0867964266209116,3,13.9,29.9
1.33333333333333,11.7867597171848,17.6878619628939,5.42617080236852,-0.0867796582827589,3,13.9,29.9
1.36666666666667,11.7863614182197,17.8672877851077,5.33940783718395,-0.0867629651845707,3,13.9,29.9
1.4,11.7859757005333,18.0438218047611,5.25266146480105,-0.0867463723828958,3,13.9,29.9
1.43333333333333,11.7856007948408,18.2174355014868,5.16418764640412,-0.0884738183969276,3,13.9,29.9
1.46666666666667,11.7852350581165,18.3880716535799,5.07400824056753,-0.0901794058365901,3,13.9,29.9
1.5,11.7848770986003,18.5556443408349,4.98037940996809,-0.0936288305994442,3,13.9,29.9
1.53333333333333,11.7845257964016,18.72006765165,4.88504537374396,-0.0953340362241288,3,13.9,29.9
1.56666666666667,11.7841802897462,18.8812847484636,4.7880063050564,-0.0970390686875655,3,13.9,29.9
1.6,11.7838400602544,19.0392384370199,4.68924058566186,-0.0987657193945344,3,13.9,29.9
1.63333333333333,11.7835049269955,19.1938704872158,4.58867911671596,-0.100561468945898,3,13.9,29.9
1.66666666666667,11.7831749549884,19.3451482543335,4.48799219088124,-0.100686925834725,3,13.9,29.9
1.7,11.782850391673,19.4930683647916,4.3872257476251,-0.100766443256139,3,13.9,29.9
1.73333333333333,11.7825316563952,19.6376287462199,4.28641266669418,-0.100813080930922,3,13.9,29.9
1.76666666666667,11.7822192614794,19.7788282572729,4.18557646049707,-0.100836206197105,3,13.9,29.9
1.8,11.7819137345606,19.916666422257,4.0847339231968,-0.100842537300268,3,13.9,29.9
1.83333333333333,11.7816156144124,20.0511145384307,3.98217491142267,-0.102559011774135,3,13.8991319444444,29.9
1.86666666666667,11.7813254025404,20.1821151810138,3.87788639860807,-0.104288512814596,3,13.8965277777778,29.9
1.9,11.7810433453597,20.3096689447183,3.77536263709679,-0.102523761511285,3,13.8921875,29.9
1.93333333333333,11.7807694923874,20.4338056648027,3.67286393200036,-0.102498705096426,3,13.8861111111111,29.9
1.96666666666667,11.7805039024022,20.5544971657926,3.56864941361717,-0.104214518383192,3,13.8782986111111,29.9
2,11.7802465441228,20.6717153625896,3.46446539358796,-0.104184020029207,3,13.86875,29.9
2.03333333333333,11.7799972034801,20.7854903668923,3.36205740276402,-0.102407990823945,3,13.8574652777778,29.9
2.06666666666667,11.7797557100086,20.8958232644229,3.25793846009266,-0.104118942671363,3,13.8444444444444,29.9
2.1,11.7795219657458,21.0026861045224,3.15385337299483,-0.104085087097822,3,13.8296875,29.9
2.13333333333333,11.7792958370863,21.1060800246189,3.04980266472404,-0.10405070827079,3,13.8131944444444,29.9
2.16666666666667,11.7790772279616,21.2060061757934,2.94578666159534,-0.1040160031287,3,13.7949652777778,29.9
2.2,11.7788660162129,21.30249478327,2.84354948230797,-0.10223717928737,3,13.775,29.9
2.23333333333333,11.7786621750067,21.3955470064619,2.73960311689443,-0.103946365413549,3,13.7532986111111,29.9
2.26666666666667,11.7784657635573,21.4851349394253,2.63569161662116,-0.103911500273266,3,13.7298611111111,29.9
2.3,11.7782767903619,21.571259743577,2.53181496037717,-0.103876656243985,3,13.7046875,29.9
2.33333333333333,11.778095270206,21.6539225791497,2.42797308096528,-0.103841879411894,3,13.6777777777778,29.9
2.36666666666667,11.7779212206407,21.7331246039115,2.32416588005608,-0.1038072009092,3,13.6491319444444,29.9
2.4,11.7777546611447,21.8088670206895,2.22040290681753,-0.103762973238551,3,13.61875,29.9
2.43333333333333,11.7775956041621,21.8811555194798,2.11707666602626,-0.103326240791269,3,13.5866319444444,29.9
2.46666666666667,11.7774440069358,21.9500225865639,2.01528616320236,-0.101790502823895,3,13.5527777777778,29.9
2.5,11.7772997623548,22.0155315661149,1.9156377121515,-0.099648451050864,3,13.5171875,29.9
2.53333333333333,11.7771628045184,22.0777278656884,1.81652705652523,-0.0991106556262691,3,13.4798611111111,29.9
2.56666666666667,11.7770330644956,22.1366578883526,1.71964590740471,-0.096881149120517,3,13.4407986111111,29.9
2.6,11.7769104119727,22.1923941803071,1.62488578362823,-0.0947601237764839,3,13.4,29.9
2.63333333333333,11.7767947797235,22.2449774545325,1.53045734388987,-0.0944284397383579,3,13.3574652777778,29.9
2.66666666666667,11.776686159507,22.294417529566,1.43628155750889,-0.0941757863809782,3,13.3131944444444,29.9
2.7,11.7765845377173,22.3407222277569,1.34233016017887,-0.0939513973300281,3,13.2671875,29.9
2.73333333333333,11.7764898299609,22.3839273268296,1.25029713306853,-0.0920330271103407,3,13.2194444444444,29.9
2.76666666666667,11.7764018840098,22.4240958513821,1.16012708602304,-0.090170047045484,3,13.1699652777778,29.9
2.8,11.7763205451554,22.4612892604992,1.07178971530158,-0.0883373707214627,3,13.11875,29.9
2.83333333333333,11.7762456545537,22.4955692859327,0.985339291338997,-0.0864504239625813,3,13.0657986111111,29.9
2.86666666666667,11.7761770464116,22.5270002782836,0.90085918793472,-0.0844801034042768,3,13.0111111111111,29.9
2.9,11.776114551265,22.5556486369325,0.81837237115487,-0.0824868167798504,3,12.9546875,29.9
2.93333333333333,11.7760580053639,22.581579241612,0.73777353475007,-0.0805988364047997,3,12.8965277777778,29.9
2.96666666666667,11.7760072566957,22.6048531716015,0.658956454678298,-0.0788170800717721,3,12.8366319444444,29.9
3,11.77596216312,22.6255287823475,0.581877572539859,-0.0770788821384393,3,12.775,29.9
3.03333333333333,11.7759225861987,22.6436645404068,0.506570409661966,-0.0753071628778934,3,12.7116319444444,29.9
3.06666666666667,11.775888389061,22.6593198633839,0.433053269278595,-0.0735171403833709,3,12.6465277777778,29.9
3.1,11.7758594378048,22.6725542410838,0.36130456766842,-0.0717487016101748,3,12.5796875,29.9
3.13333333333333,11.7758356046939,22.683425478483,0.29125386427177,-0.0700507033966494,3,12.5111111111111,29.9
3.16666666666667,11.7758167689621,22.6919890064674,0.222832567794721,-0.0684212964770497,3,12.4407986111111,29.9
3.2,11.7758028148073,22.6982984786772,0.156024160559198,-0.0668084072355229,3,12.36875,29.9
3.23333333333333,11.7757936227195,22.702409427551,0.0909479163891797,-0.0650762441700181,3,12.2949652777778,29.9
3.26666666666667,11.7757890644069,22.7043813122315,0.0277185211942466,-0.0632293951949331,3,12.2194444444444,29.9
3.3,11.7757885850975,22.7044676045151,0.00588162870107616,-0.0218368924931704,3,12.1421875,29.9
3.33333333333333,11.7757886559913,22.7042765020748,0.00147730428849486,-0.0044043244125813,5,12.0631944444444,29.9
3.36666666666667,11.7757886559913,22.7042765020748,0.00187162868982753,0.000394324401332674,5,11.9824652777778,29.9
3.4,11.7757886559913,22.7042765020748,0.00246957537330898,0.000597946683481453,5,11.9,29.9
3.43333333333333,11.7757886559913,22.7042765020748,0.0032106350522928,0.00074105967898382,5,11.8157986111111,29.9
3.46666666666667,11.7757886559913,22.7042765020748,0.00401332430785363,0.000802689255560826,5,11.7298611111111,29.9
3.5,11.7757886559913,22.7042765020748,0.00478764742419706,0.000774323116343435,5,11.6421875,29.9
3.53333333333333,11.7757886559913,22.7042765020748,0.00544638141763803,0.00065873399344097,5,11.5527777777778,29.9
3.56666666666667,11.7757886559913,22.7042765020748,0.00591439934628746,0.00046801792864943,5,11.4616319444444,29.9
3.6,11.7757886559913,22.7042765020748,0.00613553712254927,0.000221137776261807,5,11.36875,29.9
3.63333333333333,11.7757886559913,22.7042765020748,0.00607678869023642,-5.87484323128556e-05,5,11.2741319444444,29.9
3.66666666666667,11.7757886559913,22.7042765020748,0.00572986450020162,-0.000346924190034792,5,11.1777777777778,29.9
3.7,11.7757886559913,22.7042765020748,0.0051103550003891,-0.000619509499812521,5,11.0796875,29.9
3.73333333333333,11.7757886559913,22.7042765020748,0.00425489605119588,-0.000855458949193227,5,10.9798611111111,29.9
3.76666666666667,11.7757886559913,22.7042765020748,0.00321683359750249,-0.00103806245369338,5,10.8782986111111,29.9
3.8,11.7757886559913,22.7042765020748,0.00206093187658212,-0.00115590172092038,5,10.775,29.9
3.83333333333333,11.7757886559913,22.7042765020748,0.000857667876992347,-0.00120326399958977,5,10.6699652777778,29.9
3.86666666666667,11.7757886559913,22.7042765020748,0.000322387641889192,-0.000535280235103155,5,10.5631944444444,29.9
3.9,11.7757886559913,22.7042765020748,0.00141367610838948,0.00109128846650029,5,10.4546875,29.9
3.93333333333333,11.7757886559913,22.7042765020748,0.00235991272125713,0.000946236612867651,5,10.3444444444444,29.9
3.96666666666667,11.7757886559913,22.7042765020748,0.00311727854417477,0.000757365822917638,5,10.2324652777778,29.9
4,11.7757886559913,22.7042765020748,0.00365642601317443,0.000539147468999662,5,10.11875,29.9
4.03333333333333,11.7757886559913,22.7042765020748,0.00396328248307035,0.000306856469895918,5,10.0032986111111,29.9
4.06666666666667,11.7757886559913,22.7042765020748,0.0040387254790709,7.54429960005487e-05,5,9.88611111111111,29.9
4.1,11.7757886559913,22.7042765020748,0.00389727513257717,-0.000141450346493727,5,9.7671875,29.9
4.13333333333333,11.7757886559913,22.7042765020748,0.00356500121006665,-0.000332273922510525,5,9.64652777777778,29.9
4.16666666666667,11.7757886559913,22.7042765020748,0.00307687331893376,-0.000488127891132893,5,9.52413194444444,29.9
4.2,11.7757886559913,22.7042765020748,0.00247379399673243,-0.000603079322201322,5,9.4,29.9
4.23333333333333,11.7757886559913,22.7042765020748,0.00179954745254205,-0.000674246544190387,5,9.27413194444444,29.9
4.26666666666667,11.7757886559913,22.7042765020748,0.00109787468354668,-0.000701672768995364,5,9.14652777777778,29.9
4.3,11.7757886559913,22.7042765020748,0.000409852104577286,-0.000688022578969397,5,9.0171875,29.9
4.33333333333333,11.7757886559913,22.7042765020748,0.000228290446701993,-0.000181561657875293,5,8.88611111111111,29.9
4.36666666666667,11.7757886559913,22.7042765020748,0.000786821601988664,0.00055853115528667,5,8.75329861111111,29.9
4.4,11.7757886559913,22.7042765020748,0.00124358496889565,0.000456763366906991,5,8.61875,29.9
4.43333333333333,11.7757886559913,22.7042765020748,0.00158449764429916,0.000340912675403508,5,8.48246527777778,29.9
4.46666666666667,11.7757886559913,22.7042765020748,0.00180350557027277,0.000219007925973612,5,8.34444444444444,29.9
4.5,11.7757886559913,22.7042765020748,0.00190206100536379,9.85554350910135e-05,5,8.2046875,29.9
4.53333333333333,11.7757886559913,22.7042765020748,0.00188820974864735,-1.38512567164418e-05,5,8.06319444444444,29.9
4.56666666666667,11.7757886559913,22.7042765020748,0.00177538965824386,-0.000112820090403491,5,7.91996527777778,29.9
4.6,11.7757886559913,22.7042765020748,0.00158104766850102,-0.000194341989742834,5,7.775,29.9
4.63333333333333,11.7757886559913,22.7042765020748,0.00142379306754306,-0.000157254600957964,5,7.62829861111111,29.9
4.66666666666667,11.7757876315379,22.7047432626065,0.0250457677766417,0.0236219747090986,4,7.47986111111111,29.9
4.7,11.7757841802124,22.7063157522424,0.06929107420897,0.0442453064323283,4,7.3296875,29.9
4.73333333333333,11.7757772552729,22.7094708866772,0.119924700369679,0.0506336261607087,4,7.17777777777778,29.9
4.76666666666667,11.7757666553637,22.7143004073148,0.169709330023323,0.0497846296536448,4,7.02413194444444,29.9
4.8,11.775752451034,22.7207721706543,0.218433068438445,0.0487237384151211,4,6.86875,29.9
4.83333333333333,11.775734725204,22.7288483966574,0.265972252527184,0.0475391840887396,4,6.71163194444444,29.9
4.86666666666667,11.7757135644964,22.7384896183369,0.312347636860737,0.0463753843335528,4,6.55277777777778,29.9
4.9,11.7756890518222,22.7496580598739,0.357616763950709,0.0452691270899717,4,6.3921875,29.9
4.93333333333333,11.7756612662938,22.76231767615,0.40182546967027,0.0442087057195616,4,6.22986111111111,29.9
4.96666666666667,11.7756302839783,22.7764338095999,0.445011212020576,0.0431857423503061,4,6.06579861111111,29.9
5,11.7755961785118,22.7919729101392,0.487201141074706,0.0421899290541298,4,5.9,29.9
5.03333333333333,11.7755590225471,22.8089018758073,0.52839544306938,0.0411943019946743,4,5.9,29.9
5.06666666666667,11.7755188890374,22.8271874677067,0.568591917857875,0.0401964747884946,4,5.9,29.9
5.1,11.7754758508461,22.8467964878985,0.607796025977707,0.0392041081198319,4,5.9,29.9
5.13333333333333,11.7754299802678,22.8676959976181,0.646018544290994,0.0382225183132866,4,5.9,29.9
5.16666666666667,11.7753813486898,22.889853471401,0.683273754770857,0.0372552104798631,4,5.9,29.9
5.2,11.7753300260464,22.9132370459035,0.719593799846624,0.0363200450757669,4,5.9,29.9
5.23333333333333,11.7752760784932,22.9378165793114,0.755043603138675,0.0354498032920517,4,5.9,29.9
5.26666666666667,11.7752195675914,22.9635640231949,0.789679954320996,0.034636351182321,4,5.9,29.9
5.3,11.7751605511371,22.9904530445425,0.823548696368502,0.0338687420475061,4,5.9,29.9
5.33333333333333,11.7750990838533,23.0184587105509,0.856687594931075,0.0331388985625729,4,5.9,29.9
5.36666666666667,11.7750352179064,23.047557253131,0.889128443427848,0.0324408484967722,4,5.9,29.9
5.4,11.7749690033174,23.0777258818527,0.920896196047004,0.0317677526191564,4,5.9,29.9
5.43333333333333,11.7749004894814,23.1089420913158,0.951976766021119,0.0310805699741152,4,5.9,29.9
5.46666666666667,11.7748297278682,23.14118243094,0.982338651406401,0.0303618853852822,4,5.9,29.9
5.5,11.7747567716921,23.1744226552303,1.01196607927027,0.0296274278638653,4,5.9,29.9
5.53333333333333,11.7746816749337,23.2086381695962,1.04085324845472,0.0288871691844492,4,5.9,29.9
5.56666666666667,11.774604491723,23.2438043114087,1.06900244315507,0.0281491947003574,4,5.9,29.9
5.6,11.7745252757622,23.279896612904,1.09642294646957,0.0274205033144996,4,5.9,29.9
5.63333333333333,11.7744440798954,23.3168909973173,1.12312877116364,0.0267058246940692,4,5.9,29.9
5.66666666666667,11.7743609557847,23.354763926395,1.14913961056998,0.0260108394063372,4,5.9,29.9
5.7,11.7742759529242,23.3934928496942,1.17449627044116,0.0253566598711821,4,5.9,29.9
5.73333333333333,11.774189117536,23.4330567075001,1.19924253905169,0.0247462686105266,4,5.9,29.9
5.76666666666667,11.7741004929079,23.4734357771684,1.2234149734132,0.0241724343615108,4,5.9,29.9
5.8,11.7740101198576,23.5146114612691,1.24704461403364,0.0236296406204419,4,5.9,29.9
5.83333333333333,11.7739180370901,23.5565661251015,1.27015825356509,0.0231136395314506,4,5.9,29.9
5.86666666666667,11.7738242814742,23.5992829705989,1.29277937753426,0.02262112396917,4,5.9,29.9
5.9,11.7737288882592,23.6427459374215,1.31492886237034,0.0221494848360735,4,5.9,29.9
5.93333333333333,11.7736318912478,23.6869396244287,1.3366254949498,0.0216966325794601,4,5.9,29.9
5.96666666666667,11.7735333229347,23.731849226499,1.35788638857586,0.0212608936260612,4,5.9,29.9
6,11.7734332147253,23.7774604346382,1.37872207034329,0.0208356817674329,4,5.9,29.9
6.03333333333333,11.7733315959227,23.8237598978076,1.39922339548207,0.0205013251387767,4,5.9,29.9
6.06666666666667,11.7732284771938,23.8707427560092,1.4198267035688,0.0206033080867329,4,5.9,29.9
6.1,11.7731238248461,23.9184243601772,1.44130441406409,0.0214777104952868,4,5.9,29.9
6.13333333333333,11.7730175366861,23.9668512715726,1.46475466241343,0.0234502483493486,4,5.9,29.9
6.16666666666667,11.7729094189763,24.0161117607328,1.49156180692978,0.0268071445163491,4,5.9,29.9
6.2,11.7727991746621,24.0663411714403,1.52310804084815,0.0315462339183628,4,5.9,29.9
6.23333333333333,11.7726864107092,24.1177185774981,1.56063253994499,0.0375244990968391,4,5.9,29.9
6.26666666666667,11.772570651798,24.1704605436749,1.60511814342366,0.0444856034786758,4,5.9,29.9
6.3,11.7724513620496,24.2248112265407,1.65724825333365,0.0521301099099896,4,5.9,29.9
6.33333333333333,11.7723279649148,24.2810333129666,1.7174536306643,0.0602053773306532,4,5.9,29.9
6.36666666666667,11.7721998624164,24.3393992527089,1.78587163380211,0.0684180031378017,4,5.9,29.9
6.4,11.7720664595666,24.4001801335337,1.86229226771938,0.0764206339172773,4,5.9,29.9
6.43333333333333,11.7719271867989,24.4636354608762,1.94624277726099,0.0839505095416104,4,5.9,29.9
6.46666666666667,11.7717815166828,24.5300055420757,2.03705600580503,0.0908132285440342,4,5.9,29.9
6.5,11.7716289757277,24.5995061084428,2.13393349855374,0.0968774927487162,4,5.9,29.9
6.53333333333333,11.7714691522703,24.6723247216562,2.23598928171964,0.102055783165897,4,5.9,29.9
