Time,x_ego,y_ego,velocity,acceleration,action,x_ped,y_ped
0,11.8,15.9,5,0,1,15.5,29.9
0.0333333333333333,11.8000042639419,16.0666076888357,4.99642262753217,-0.00357737246783252,1,15.4502170138889,29.9
0.0666666666666667,11.8000316183525,16.2330926719338,4.99265027859256,-0.00377234893960843,1,15.4008680555556,29.9
0.1,11.8000983301241,16.399449704125,4.98875897795101,-0.00389130064155108,1,15.351953125,29.9
0.133333333333333,11.8002137715898,16.5656760275474,4.98482015694995,-0.00393882100105714,1,15.3034722222222,29.9
0.166666666666667,11.8003816127845,16.7317710017252,4.98088783274753,-0.00393232420242562,1,15.2554253472222,29.9
0.2,11.8006012848803,16.8977354316726,4.97699522794029,-0.00389260480723763,1,15.2078125,29.9
0.233333333333333,11.8008694087826,17.0635709638414,4.97316023376363,-0.00383499417665689,1,15.1606336805556,29.9
0.266666666666667,11.8011804218993,17.2292796616093,4.9693901370339,-0.00377009672973205,1,15.1138888888889,29.9
0.3,11.8015260888089,17.3948636937759,4.96568352770707,-0.0037066093268292,1,15.067578125,29.9
0.333333333333333,11.8018984922226,17.5603250634888,4.9620320989571,-0.00365142874997204,1,15.0217013888889,29.9
0.366666666666667,11.8022910561537,17.7256654291669,4.95842400256501,-0.00360809639209059,1,14.9762586805556,29.9
0.4,11.8026986604572,17.8908860357818,4.95484671333411,-0.0035772892309005,1,14.93125,29.9
0.433333333333333,11.8031170077517,18.0559877209817,4.95128848872493,-0.00355822460918009,1,14.8866753472222,29.9
0.466666666666667,11.8035410581465,18.2209709560277,4.94773900916937,-0.00354947955555929,1,14.8425347222222,29.9
0.5,11.803967374278,18.3858358902662,4.94418944511999,-0.0035495640493739,1,14.798828125,29.9
0.533333333333333,11.8043946068336,18.5505823944886,4.94063219135483,-0.00355725376515892,1,14.7555555555556,29.9
0.566666666666667,11.8048231479429,18.7152100986253,4.93706063147488,-0.00357155987995128,1,14.7127170138889,29.9
0.6,11.8052546984216,18.879718421695,4.93346889330606,-0.00359173816882219,1,14.6703125,29.9
0.633333333333333,11.8056917972401,19.0441065937858,4.92985161768945,-0.0036172756166124,1,14.6283420138889,29.9
0.666666666666667,11.8061373597479,19.2083736708696,4.92620376324691,-0.0036478544425389,1,14.5868055555556,29.9
0.7,11.8065942670354,19.3725185433339,4.92252042891275,-0.00368333433415735,1,14.545703125,29.9
0.733333333333333,11.8070650407651,19.5365399385955,4.91879668386923,-0.00372374504352457,1,14.5050347222222,29.9
0.766666666666667,11.8075516256686,19.7004364180405,4.91502740661876,-0.00376927725047072,1,14.4648003472222,29.9
0.8,11.8080552217789,19.8641773026272,4.90946318962364,-0.00556421699511933,1,14.425,29.9
0.833333333333333,11.8085763482775,20.027731725604,4.9038419479018,-0.00562124172183864,1,14.3856336805556,29.9
0.866666666666667,11.8091143215156,20.1910686026886,4.89641248827705,-0.0074294596247535,1,14.3467013888889,29.9
0.9,11.8096659334963,20.3541566049057,4.88891164309164,-0.00750084518540817,1,14.308203125,29.9
0.933333333333333,11.8102269463343,20.5169934524751,4.88134843700602,-0.00756320608561634,1,14.2701388888889,29.9
0.966666666666667,11.8107897245798,20.6794909320552,4.86855277955317,-0.0127956574528465,1,14.2325086805556,29.9
1,11.8113479973042,20.8415036004018,4.85226102223765,-0.0162917573155266,1,14.1953125,29.9
1.03333333333333,11.8118982636575,21.0029441809763,4.83422755115309,-0.0180334710845527,3,14.1585503472222,29.9
1.06666666666667,11.8124392531565,21.1637547529489,4.81445994673617,-0.0197676044169279,3,14.1222222222222,29.9
1.1,11.8129713729439,21.3239063099584,4.79468591213005,-0.0197740346061126,3,14.086328125,29.9
1.13333333333333,11.8134959994086,21.4833409327569,4.77144332941597,-0.0232425827140865,3,14.0508680555556,29.9
1.16666666666667,11.8140150980389,21.6420008212827,4.74820154295896,-0.0232417864570031,3,14.0158420138889,29.9
1.2,11.8145310303116,21.7998860328693,4.72496275432875,-0.0232387886302163,3,13.98125,29.9
1.23333333333333,11.8150460361347,21.9569679852183,4.7000064221494,-0.0249563321793449,3,13.9470920138889,29.9
1.26666666666667,11.815562137885,22.1132181465387,4.67505604418549,-0.0249503779639131,3,13.9133680555556,29.9
1.3,11.816081107623,22.2686367257599,4.65011252489552,-0.0249435192899661,3,13.9133680555556,29.9
1.33333333333333,11.8166043076556,22.4232239587867,4.62517650954918,-0.0249360153463432,3,13.9133680555556,29.9
1.36666666666667,11.8171324724228,22.5769223332581,4.59678243296583,-0.0283940765833535,3,13.9133680555556,29.9
1.4,11.8176656060753,22.7295878911635,4.56320903602187,-0.03357339694396,3,13.9133680555556,29.9
1.43333333333333,11.8182029033024,22.8809615385947,4.51926940254392,-0.0439396334779438,3,13.9133680555556,29.9
1.46666666666667,11.818742786983,23.0306687059347,4.46322180051682,-0.0560476020271086,3,13.9133680555556,29.9
1.5,11.8192830633048,23.1782484394544,4.39162486845059,-0.0715969320662211,3,13.9133680555556,29.9
1.53333333333333,11.8198209104338,23.323124725938,4.30101635745336,-0.0906085109972308,3,13.9133680555556,29.9
1.56666666666667,11.8203530588947,23.4646352259593,4.18967893272997,-0.111337424723396,3,13.9133680555556,29.9
1.6,11.8208761633354,23.6021177718552,4.05934030252845,-0.130338630201513,3,13.9133680555556,29.9
1.63333333333333,11.8213875626221,23.7351120246079,3.92038261570272,-0.138957686825737,3,13.9133680555556,29.9
1.66666666666667,11.8218854573832,23.8633885173649,3.7762764655686,-0.144106150134116,3,13.9133680555556,29.9
1.7,11.8223683775583,23.9867756789849,3.62702536646891,-0.149251099099693,3,13.9133680555556,29.9
1.73333333333333,11.8228350022051,24.1051020414885,3.47263214115156,-0.154393225317351,3,13.9133680555556,29.9
1.76666666666667,11.8232841494102,24.2181962238441,3.31309903386979,-0.159533107281764,3,13.9133680555556,29.9
1.8,11.8237147478589,24.3258869200543,3.14842782696407,-0.16467120690572,3,13.9133680555556,29.9
1.83333333333333,11.8241261084946,24.4280893611035,2.98380811502204,-0.164619711942032,3,13.9133680555556,29.9
1.86666666666667,11.8245178939951,24.5248052959383,2.81924042031774,-0.164567694704302,3,13.9133680555556,29.9
1.9,11.8248897855455,24.6160365014946,2.6547249292868,-0.164515491030941,3,13.9133680555556,29.9
1.93333333333333,11.8252414648232,24.7017847708681,2.49026173776191,-0.164463191524892,3,13.9133680555556,29.9
1.96666666666667,11.8255728186334,24.7821093099678,2.32929526250303,-0.160966475258872,3,13.9133680555556,29.9
2,11.8258837432197,24.8570695139351,2.1684256197896,-0.160869642713431,3,13.9133680555556,29.9
2.03333333333333,11.826174106729,24.9267099610169,2.01039091730718,-0.158034702482426,3,13.9133680555556,29.9
2.06666666666667,11.8264439811317,24.9911211358829,1.85477920506523,-0.155611712241944,3,13.9133680555556,29.9
2.1,11.8266934712829,25.0503919672479,1.70198653496022,-0.152792670105009,3,13.9133680555556,29.9
2.13333333333333,11.8269227436207,25.1046177848483,1.55207565444623,-0.149910880513991,3,13.9133680555556,29.9
2.16666666666667,11.8271321103617,25.1539237023391,1.4067881941561,-0.145287460290131,3,13.9133680555556,29.9
2.2,11.8273219115594,25.1984346887919,1.2643813273799,-0.142406866776206,3,13.9133680555556,29.9
2.23333333333333,11.8274923976963,25.2382460904636,1.12481231833545,-0.139569009044443,3,13.9133680555556,29.9
2.26666666666667,11.8276438307513,25.2734519841364,0.988079534693979,-0.136732783641474,3,13.9133680555556,29.9
2.3,11.8277766055032,25.3041780172353,0.856061561760328,-0.132017972933651,3,13.9133680555556,29.9
2.33333333333333,11.8278911401157,25.3305531375593,0.727025055922532,-0.129036505837796,3,13.9133680555556,29.9
2.36666666666667,11.8279877406144,25.3526743078569,0.600829140662032,-0.1261959152605,3,13.9133680555556,29.9
2.4,11.8280668215336,25.3706642578677,0.479183481250422,-0.12164565941161,3,13.9133680555556,29.9
2.43333333333333,11.8281287008183,25.3846179520413,0.358677322361659,-0.120506158888763,3,13.9133680555556,29.9
2.46666666666667,11.8281737050854,25.3946299296817,0.242694380674149,-0.11598294168751,3,13.9133680555556,29.9
2.5,11.8282022703401,25.4008205656055,0.129466913236682,-0.113227467437466,3,13.9133680555556,29.9
2.53333333333333,11.8282147376091,25.4032830229268,0.019653602136456,-0.109813311100226,3,13.9133680555556,29.9
2.56666666666667,11.8282127703608,25.4024518458497,0.039710800064746,0.02005719792829,4,13.9133680555556,29.9
2.6,11.8282072918033,25.4011357252177,0.00354343213839336,-0.0361673679263526,3,13.9133680555556,29.9
2.63333333333333,11.8282072918033,25.4011357252177,0.00331017625518918,-0.000233255883204185,5,13.9133680555556,29.9
2.66666666666667,11.8282072918033,25.4011357252177,0.00353245387940771,0.00022227762421853,5,13.9133680555556,29.9
2.7,11.8282072918033,25.4011357252177,0.00413600426319571,0.000603550383788001,5,13.9133680555556,29.9
2.73333333333333,11.8282072918033,25.4011357252177,0.00499974439519703,0.00086374013200132,5,13.9133680555556,29.9
2.76666666666667,11.8282072918033,25.4011357252177,0.0059774277446475,0.000977683349450474,5,13.9133680555556,29.9
2.8,11.8282072918033,25.4011357252177,0.00691783860169803,0.00094041085705053,5,13.9133680555556,29.9
2.83333333333333,11.8282072918033,25.4011357252177,0.00768206064375562,0.000764222042057585,5,13.9133680555556,29.9
2.86666666666667,11.8282072918033,25.4011357252177,0.00815684481689331,0.000474784173137698,5,13.9133680555556,29.9
2.9,11.8282072918033,25.4011357252177,0.00826357892272437,0.000106734105831058,5,13.9133680555556,29.9
2.93333333333333,11.8282072918033,25.4011357252177,0.00796279573302708,-0.000300783189697295,5,13.9133680555556,29.9
2.96666666666667,11.8282072918033,25.4011357252177,0.00725452313757854,-0.000708272595448541,5,13.9133680555556,29.9
3,11.8282072918033,25.4011357252177,0.00617506297646624,-0.00107946016111229,5,13.9133680555556,29.9
3.03333333333333,11.8282072918033,25.4011357252177,0.00479097770074308,-0.00138408527572317,5,13.9133680555556,29.9
3.06666666666667,11.8282072918033,25.4011357252177,0.00319116645066186,-0.00159981125008122,5,13.9133680555556,29.9
3.1,11.8282072918033,25.4011357252177,0.00147793153778189,-0.00171323491287997,5,13.9133680555556,29.9
3.13333333333333,11.8282072918033,25.4011357252177,0.000242115494363714,-0.00123581604341818,5,13.9133680555556,29.9
3.16666666666667,11.8282072918033,25.4011357252177,0.00186656702773822,0.0016244515333745,5,13.9133680555556,29.9
3.2,11.8282072918033,25.4011357252177,0.00330455800078579,0.00143799097304757,5,13.9133680555556,29.9
3.23333333333333,11.8282072918033,25.4011357252177,0.00448250635658375,0.00117794835579796,5,13.9133680555556,29.9
3.26666666666667,11.8282072918033,25.4011357252177,0.00534800854354957,0.000865502186965821,5,13.9133680555556,29.9
3.3,11.8282072918033,25.4011357252177,0.00587181315267611,0.000523804609126541,5,13.9133680555556,29.9
3.33333333333333,11.8282072918033,25.4011357252177,0.00604794737173656,0.000176134219060448,5,13.9133680555556,29.9
3.36666666666667,11.8282072918033,25.4011357252177,0.00589219608014164,-0.000155751291594919,5,13.9133680555556,29.9
3.4,11.8282072918033,25.4011357252177,0.00543922700844218,-0.000452969071699452,5,13.9133680555556,29.9
3.43333333333333,11.8282072918033,25.4011357252177,0.00473871533822077,-0.000700511670221416,5,13.9133680555556,29.9
3.46666666666667,11.8282072918033,25.4011357252177,0.00385084798715622,-0.000887867351064544,5,13.9133680555556,29.9
3.5,11.8282072918033,25.4011357252177,0.00284158440062397,-0.00100926358653225,5,13.9133680555556,29.9
3.53333333333333,11.8282072918033,25.4011357252177,0.00177802144008555,-0.00106356296053843,5,13.9133680555556,29.9
3.56666666666667,11.8282072918033,25.4011357252177,0.000724160535343439,-0.00105386090474211,5,13.9133680555556,29.9
3.6,11.8282072918033,25.4011357252177,0.000262688155054828,-0.000461472380288611,5,13.9133680555556,29.9
3.63333333333333,11.8282072918033,25.4011357252177,0.00113470099254425,0.00087201283748942,5,13.9133680555556,29.9
3.66666666666667,11.8282072918033,25.4011357252177,0.0018554449404807,0.000720743947936455,5,13.9133680555556,29.9
3.7,11.8282072918033,25.4011357252177,0.00240086957408343,0.000545424633602723,5,13.9133680555556,29.9
3.73333333333333,11.8282072918033,25.4011357252177,0.00275942822371074,0.000358558649627315,5,13.9133680555556,29.9
3.76666666666667,11.8282072918033,25.4011357252177,0.00293142088433241,0.000171992660621672,5,13.9133680555556,29.9
3.8,11.8282072918033,25.4011357252177,0.00292769029595681,-3.73058837560602e-06,5,13.9133680555556,29.9
3.83333333333333,11.8282072918033,25.4011357252177,0.00276782785860202,-0.000159862437354784,5,13.9133680555556,29.9
3.86666666666667,11.8282072918033,25.4011357252177,0.00247805794514593,-0.000289769913456097,5,13.9133680555556,29.9
3.9,11.8282072918033,25.4011357252177,0.00208896872606527,-0.000389089219080655,5,13.9133680555556,29.9
3.93333333333333,11.8282072918033,25.4011357252177,0.00163324649882479,-0.000455722227240476,5,13.9133680555556,29.9
3.96666666666667,11.8282072918033,25.4011357252177,0.00114355086079726,-0.000489695638027534,5,13.9133680555556,29.9
4,11.8282072918033,25.4011357252177,0.000650642274313307,-0.000492908586483954,5,13.9133680555556,29.9
4.03333333333333,11.8282072918033,25.4011357252177,0.00028045652846952,-0.000370185745843787,5,13.9133680555556,29.9
4.06666666666667,11.8282080911063,25.401343254359,0.00773406428222828,0.00745360775375876,5,13.9133680555556,29.9
4.1,11.8282096070714,25.401736856144,0.0158673152020293,0.00813325091980101,5,13.9133680555556,29.9
4.13333333333333,11.8282124930135,25.4024861544975,0.0290634365178829,0.0131961213158536,5,13.9133680555556,29.9
4.16666666666667,11.8282172831889,25.4037298622093,0.0455173144837196,0.0164538779658368,5,13.9133680555556,29.9
4.2,11.8282246109681,25.4056324263096,0.0685770006199803,0.0230596861362607,4,13.9133680555556,29.9
4.23333333333333,11.8282352062799,25.4083833640173,0.0963990167745022,0.0278220161545219,4,13.9133680555556,29.9
4.26666666666667,11.828250004826,25.4122256190007,0.134030794272587,0.0376317774980847,4,13.9133680555556,29.9
4.3,11.8282702561008,25.4174836074563,0.18131142784165,0.047280633569063,4,13.9133680555556,29.9
4.33333333333333,11.8282966300117,25.4243312628477,0.229382250867647,0.0480708230259974,4,13.9133680555556,29.9
4.36666666666667,11.8283291062385,25.4327633094076,0.276371957984129,0.0469897071164821,4,13.9133680555556,29.9
4.4,11.8283675459303,25.4427436963005,0.322293205178679,0.0459212471945493,4,13.9133680555556,29.9
4.43333333333333,11.8284118141154,25.4542373800273,0.367179085110927,0.044885879932248,4,13.9133680555556,29.9
4.46666666666667,11.8284617797594,25.4672103393119,0.411057407471208,0.0438783223602814,4,13.9133680555556,29.9
4.5,11.8285173151826,25.481629423969,0.453952247714116,0.0428948402429075,4,13.9133680555556,29.9
4.53333333333333,11.8285782953471,25.4974621697251,0.495876875330898,0.0419246276167827,4,13.9133680555556,29.9
4.56666666666667,11.8286445952721,25.5146761271856,0.53682154159539,0.0409446662644917,4,13.9133680555556,29.9
4.6,11.8287160887829,25.5332385369489,0.57678097518627,0.0399594335908797,4,13.9133680555556,29.9
4.63333333333333,11.8287926495582,25.5531166015847,0.615758366256431,0.0389773910701616,4,13.9133680555556,29.9
4.66666666666667,11.8288741520448,25.5742777230189,0.653762884587695,0.0380045183312638,4,13.9133680555556,29.9
4.7,11.8289604721214,25.5966896750127,0.690808616757749,0.0370457321700535,4,13.9133680555556,29.9
4.73333333333333,11.8290514886593,25.6203210081978,0.726934809426018,0.0361261926682698,4,13.9133680555556,29.9
4.76666666666667,11.8291470876791,25.6451421293806,0.76220589614059,0.0352710867145711,4,13.9133680555556,29.9
4.8,11.8292471629021,25.6711254447514,0.796675741093983,0.0344698449533931,4,13.9133680555556,29.9
4.83333333333333,11.8293516143029,25.6982449839976,0.830388028018717,0.0337122869247343,4,13.9133680555556,29.9
4.86666666666667,11.8294603469866,25.7264761087468,0.863378877025712,0.0329908490069951,4,13.9133680555556,29.9
4.9,11.8295732703482,25.75579529443,0.895678780301552,0.0322999032758396,4,13.9133680555556,29.9
4.93333333333333,11.8296902973144,25.7861799333437,0.927308690049429,0.0316299097478776,4,13.9133680555556,29.9
4.96666666666667,11.8298113408574,25.8176074294951,0.958244859508829,0.0309361694593995,4,13.9133680555556,29.9
5,11.8299362604417,25.8500541312371,0.988458023596116,0.0302131640872877,4,13.9133680555556,29.9
5.03333333333333,11.8300647165111,25.883495695235,1.01793483850366,0.0294768149075411,4,13.9133680555556,29.9
5.06666666666667,11.8301963290197,25.9179074932359,1.04667102581047,0.0287361873068082,4,13.9133680555556,29.9
5.1,11.8303307408738,25.9532648853019,1.07467045125988,0.0279994254494162,4,13.9133680555556,29.9
5.13333333333333,11.8304676309249,25.9895434721856,1.10194353116031,0.0272730799004328,4,13.9133680555556,29.9
5.16666666666667,11.8306067247021,26.026719276604,1.12850506804507,0.0265615368847543,4,13.9133680555556,29.9
5.2,11.8307478025194,26.0647689087292,1.15437810533154,0.0258730372864706,4,13.9133680555556,29.9
5.23333333333333,11.8308907060789,26.1036701125481,1.17960652859328,0.0252284232617379,4,13.9133680555556,29.9
5.26666666666667,11.831035341158,26.14340212093,1.20423255119687,0.0246260226035966,4,13.9133680555556,29.9
5.3,11.8311816749816,26.1839454555919,1.22829152655436,0.0240589753574825,4,13.9133680555556,29.9
5.33333333333333,11.831329730605,26.2252817268107,1.25181355635808,0.0235220298037249,4,13.9133680555556,29.9
5.36666666666667,11.8314795000242,26.2673934795268,1.27482468987264,0.0230111335145633,4,13.9133680555556,29.9
5.4,11.8316307072774,26.3102640743124,1.29734781437053,0.0225231244978885,4,13.9133680555556,29.9
5.43333333333333,11.8317830611261,26.3538775921064,1.31940331795039,0.0220555035798613,4,13.9133680555556,29.9
5.46666666666667,11.8319363451727,26.3982188937429,1.34102788763911,0.0216245696887183,4,13.9133680555556,29.9
5.5,11.8320904315996,26.443275976643,1.36239390335931,0.0213660157201951,4,13.9133680555556,29.9
5.53333333333333,11.8322453003975,26.489045230863,1.38381686980056,0.021422966441256,4,13.9133680555556,29.9
5.56666666666667,11.8324010451948,26.5355345855494,1.40566093943811,0.021844069637551,4,13.9133680555556,29.9
5.6,11.8325578647103,26.5827641007352,1.42828503015864,0.0226240907205295,4,13.9133680555556,29.9
5.63333333333333,11.832716047144,26.6307656578925,1.45204212907088,0.0237570989122371,4,13.9133680555556,29.9
5.66666666666667,11.832875952408,26.6795827269028,1.47726860578575,0.0252264767148713,4,13.9133680555556,29.9
5.7,11.8330379901928,26.7292693323462,1.50426053489311,0.0269919291073561,4,13.9133680555556,29.9
5.73333333333333,11.8332025972043,26.7798887694963,1.53327990720493,0.0290193723118162,4,13.9133680555556,29.9
5.76666666666667,11.8333702164147,26.8315125245506,1.56455488675951,0.0312749795545815,4,13.9133680555556,29.9
5.8,11.8335412783987,26.8842191608113,1.59828519151095,0.0337303047514419,4,13.9133680555556,29.9
5.83333333333333,11.833716187442,26.9380936966047,1.63465983743849,0.0363746459275462,4,13.9133680555556,29.9
5.86666666666667,11.8338953118098,26.9932271745102,1.67384698052446,0.0391871430859656,4,13.9133680555556,29.9
5.9,11.8340789754125,27.049715589824,1.71597692494431,0.0421299444198486,4,13.9133680555556,29.9
5.93333333333333,11.8342674552055,27.107659341435,1.76119793020692,0.0452210052626116,4,13.9133680555556,29.9
5.96666666666667,11.8344609899169,27.167164795548,1.80971869379002,0.0485207635831013,4,13.9133680555556,29.9
6,11.8346597930085,27.2283461390572,1.86180415618708,0.0520854623970626,4,13.9133680555556,29.9
6.03333333333333,11.8348640718173,27.2913282310847,1.91784221584338,0.0560380596562948,4,13.9133680555556,29.9
6.06666666666667,11.8350740546794,27.3562511829132,1.97833958386823,0.0604973680248491,4,13.9133680555556,29.9
6.1,11.8352900035309,27.4232706527431,2.04367719614881,0.0653376122805853,4,13.9133680555556,29.9
6.13333333333333,11.8355122005364,27.4925508141759,2.11398187449588,0.0703046783470658,4,13.9133680555556,29.9
