Time,x_ego,y_ego,velocity,acceleration,action,x_ped,y_ped
0,11.8,8.9,7,0,1,15.5,29.9
0.0333333333333333,11.8,9.13327037939431,6.99615577953002,-0.00384422046998356,1,15.5,29.9
0.0666666666666667,11.8,9.36640659881126,6.99196947109348,-0.00418630843653833,1,15.5,29.9
0.1,11.8,9.59940075527911,6.98769498718995,-0.00427448390352669,1,15.5,29.9
0.133333333333333,11.8,9.83225378528415,6.9834976545359,-0.00419733265404787,1,15.5,29.9
0.166666666666667,11.8,10.0649678802301,6.97935585456763,-0.00414179996826913,1,15.5,29.9
0.2,11.8,10.2975446186632,6.97525409491249,-0.00410175965514537,1,15.5,29.9
0.233333333333333,11.8,10.5299851399444,6.97118127319767,-0.00407282171482137,1,15.5,29.9
0.266666666666667,11.8,10.7622902687052,6.96712943294736,-0.00405184025031069,1,15.5,29.9
0.3,11.7999950817538,10.9944606040245,6.96309288414761,-0.00403654879975068,1,15.5,29.9
0.333333333333333,11.7999642960163,11.2264965830354,6.95906763729773,-0.00402524684987604,1,15.5,29.9
0.366666666666667,11.7998909546393,11.4583985252289,6.95505085584908,-0.00401678144865159,1,15.5,29.9
0.4,11.7997663885595,11.690166663603,6.95104041825516,-0.00401043759391673,1,15.5,29.9
0.433333333333333,11.7995875690037,11.9218011680313,6.94703471935308,-0.0040056989020778,1,15.5,29.9
0.466666666666667,11.7993566027311,12.1533021640066,6.94303247071914,-0.00400224863394527,1,15.5,29.9
0.5,11.7990835802467,12.3846697496986,6.93903272072832,-0.00399974999081554,1,15.5,29.9
0.533333333333333,11.7987821723085,12.6159040083305,6.93503487251367,-0.00399784821465499,1,15.5,29.9
0.566666666666667,11.7984690073925,12.8470050168394,6.93103862850997,-0.00399624400370069,1,15.5,29.9
0.6,11.7981587664717,13.0779728468742,6.9270439324652,-0.00399469604477165,1,15.5,29.9
0.633333333333333,11.7978630373189,13.3088075635125,6.92305066347248,-0.00399326899271735,1,15.5,29.9
0.666666666666667,11.7975967332556,13.5395092299638,6.91905880769702,-0.00399185577545857,1,15.5,29.9
0.7,11.7973695998927,13.7700779015868,6.9150684956397,-0.00399031205732214,1,15.5,29.9
0.733333333333333,11.79718557462,14.000513628905,6.91107987605432,-0.00398861958538266,1,15.5,29.9
0.766666666666667,11.7970447549503,14.2308164632815,6.90709313376665,-0.00398674228766804,1,15.5,29.9
0.8,11.7969448908808,14.460986463661,6.90310863326662,-0.00398450050003163,1,15.5,29.9
0.833333333333333,11.7968824206143,14.6910237057563,6.8991269474622,-0.00398168580441549,1,15.5,29.9
0.866666666666667,11.7968531520287,14.9209282875643,6.89514872257425,-0.00397822488795185,1,15.5,29.9
0.9,11.7968527125131,15.1507003302897,6.8911745860592,-0.00397413651504941,1,15.5,29.9
0.933333333333333,11.796876868503,15.3803399766432,6.88720509872058,-0.00396948733861713,1,15.5,29.9
0.966666666666667,11.7969217760262,15.6098473878957,6.88324073552614,-0.00396436319443971,1,15.5,29.9
1,11.7969841837007,15.8392227405474,6.87928188321095,-0.00395885231518722,1,15.5,29.9
1.03333333333333,11.7970615819079,16.0684662230904,6.8753288464118,-0.00395303679915937,1,15.5,29.9
1.06666666666667,11.7971514502254,16.2975780329384,6.87138180828055,-0.0039470381312503,1,15.5,29.9
1.1,11.7972485796663,16.5265583720114,6.8674407652274,-0.00394104305314791,1,15.5,29.9
1.13333333333333,11.797344915992,16.755407442131,6.86350564676794,-0.00393511845945849,1,15.5,29.9
1.16666666666667,11.7974286501439,16.9841254459212,6.85957650904518,-0.00392913772275882,1,15.5,29.9
1.2,11.7974870133614,17.2127125859858,6.85565334269473,-0.00392316635045109,1,15.5,29.9
1.23333333333333,11.7975035728822,17.4411690584515,6.85173602541436,-0.00391731728036948,1,15.5,29.9
1.26666666666667,11.7974655271016,17.6694950429723,6.84782407595957,-0.00391194945478812,1,15.5,29.9
1.3,11.797367158113,17.8976906778509,6.84391564674317,-0.00390842921639667,1,15.5,29.9
1.33333333333333,11.7972080175821,18.1257560019203,6.84000660409696,-0.00390904264621827,1,15.5,29.9
1.36666666666667,11.7969906844281,18.3536908843243,6.83609092298064,-0.00391568111631635,1,15.5,29.9
1.4,11.7967191731264,18.5814949971164,6.8321639203113,-0.00392700266933943,1,15.5,29.9
1.43333333333333,11.7963979497127,18.8091680014636,6.82822813487497,-0.00393578543633399,1,15.5,29.9
1.46666666666667,11.796031410674,19.0367095814493,6.82428312662737,-0.00394500824760069,1,15.5,29.9
1.5,11.7956236506213,19.2641194779231,6.82033174119397,-0.00395138543339701,1,15.5,29.9
1.53333333333333,11.7951791508866,19.4913975148014,6.81637595955118,-0.00395578164279353,1,15.4916666666667,29.9
1.56666666666667,11.7947053244993,19.7185435793583,6.81241716615909,-0.00395879339208705,1,15.4666666666667,29.9
1.6,11.7942118779061,19.9455576067895,6.80845640518407,-0.00396076097501918,1,15.425,29.9
1.63333333333333,11.7937101105438,20.1724395683767,6.80449443002431,-0.00396197515975683,1,15.3752276867031,29.9
1.66666666666667,11.7932130002974,20.3991894631309,6.80053191624191,-0.00396251378239931,1,15.3259107468124,29.9
1.7,11.7927286860221,20.6258073005431,6.79656941737917,-0.00396249886274003,1,15.2770491803279,29.9
1.73333333333333,11.7922602385299,20.8522930926249,6.79260725024092,-0.00396216713825659,1,15.2286429872495,29.9
1.76666666666667,11.7918073151609,21.0786468517871,6.78864558266011,-0.00396166758081051,1,15.1806921675774,29.9
1.8,11.7913675633596,21.3048685907521,6.78468450558722,-0.00396107707288884,1,15.1331967213115,29.9
1.83333333333333,11.790937678681,21.5309583232187,6.78072407639382,-0.00396042919340012,1,15.0861566484517,29.9
1.86666666666667,11.7905141179365,21.7569160645051,6.77676433856364,-0.00395973783017212,1,15.0395719489982,29.9
1.9,11.7900935251949,21.9827418318804,6.77280532802132,-0.0039590105423235,1,14.9934426229508,29.9
1.93333333333333,11.78967295092,22.2084356445827,6.7688470742294,-0.00395825379192605,1,14.9477686703097,29.9
1.96666666666667,11.7892499415561,22.4339975236493,6.76488960030687,-0.00395747392252677,1,14.9025500910747,29.9
2,11.7888225591473,22.6594274916804,6.76093292354635,-0.00395667676051925,1,14.8577868852459,29.9
2.03333333333333,11.7883893680545,22.8847255726167,6.75697705635396,-0.00395586719238583,1,14.8134790528233,29.9
2.06666666666667,11.7879494058705,23.109891791555,6.75302200730891,-0.00395504904505373,1,14.7696265938069,29.9
2.1,11.787502142285,23.3349261745975,6.74906778213148,-0.0039542251774316,1,14.7262295081967,29.9
2.13333333333333,11.7870474238229,23.5598287487088,6.74511438449497,-0.00395339763650693,1,14.6832877959927,29.9
2.16666666666667,11.7865854026889,23.7845995415637,6.74116181669265,-0.00395256780232422,1,14.6408014571949,29.9
2.2,11.7861164517724,24.0092385813733,6.73721008017763,-0.00395173651502034,1,14.5987704918033,29.9
2.23333333333333,11.7856410724293,24.2337458966964,6.73325917597357,-0.00395090420405442,1,14.5571948998179,29.9
2.26666666666667,11.7851598047919,24.4581215162498,6.72930910494315,-0.00395007103042477,1,14.5160746812386,29.9
2.3,11.7846731509413,24.6823654687402,6.72535986791337,-0.00394923702977756,1,14.4754098360656,29.9
2.33333333333333,11.7841815192266,24.9064777827336,6.72141146568359,-0.00394840222977688,1,14.4352003642987,29.9
2.36666666666667,11.7836851940907,25.1304584865751,6.71746389896436,-0.00394756671923435,1,14.3954462659381,29.9
2.4,11.7831843311331,25.354307608362,6.71351716829989,-0.00394673066446938,1,14.3561475409836,29.9
2.43333333333333,11.7826789729921,25.5780251759605,6.70957127401286,-0.00394589428702563,1,14.3173041894353,29.9
2.46666666666667,11.7821690788662,25.8016112170562,6.70562621618742,-0.00394505782544652,1,14.2789162112933,29.9
2.5,11.781654559518,26.0250657592195,6.7016819946873,-0.00394422150011486,1,14.2409836065574,29.9
2.53333333333333,11.781135310359,26.2483888299712,6.69773860919694,-0.003943385490361,1,14.2035063752277,29.9
2.56666666666667,11.7806112372356,26.4715804568367,6.69379605927289,-0.0039425499240533,1,14.1664845173042,29.9
2.6,11.780082272182,26.6946406673808,6.68985434439651,-0.0039417148763734,1,14.1299180327869,29.9
2.63333333333333,11.7795483790013,26.9175694892213,6.68591346402185,-0.00394088037466833,1,14.0938069216758,29.9
2.66666666666667,11.7790095505577,27.1403669500255,6.68197341761399,-0.00394004640785983,1,14.0581511839709,29.9
2.7,11.7784658008218,27.3630330774943,6.67803420467458,-0.00393921293940735,1,14.0229508196721,29.9
2.73333333333333,11.7779171549543,27.5855678993411,6.67409582475271,-0.00393837992187063,1,13.9882058287796,29.9
2.76666666666667,11.7773636402113,27.8079714432716,6.67015827744239,-0.00393754731032203,1,13.9539162112933,29.9
2.8,11.7768045120898,28.0302437351541,6.66622157275616,-0.00393670468622176,1,13.9200819672131,29.9
2.83333333333333,11.7762364997554,28.2523847947365,6.66228571635362,-0.0039358564025429,1,13.9200819672131,29.9
2.86666666666667,11.7756569612301,28.4743946429332,6.65835070218422,-0.00393501416939923,1,13.9200819672131,29.9
2.9,11.7750645012113,28.6962733033596,6.65441652371278,-0.00393417847143951,1,13.9200819672131,29.9
2.93333333333333,11.774457818302,28.9180207996108,6.65048319298391,-0.00393333072887003,1,13.9200819672131,29.9
2.96666666666667,11.773832775948,29.139637147825,6.64655073939261,-0.00393245359130567,1,13.9200819672131,29.9
3,11.7731829061735,29.3611223572655,6.642619195328,-0.00393154406460638,1,13.9200819672131,29.9
3.03333333333333,11.772500422839,29.5824764373233,6.63868922047345,-0.00392997485454671,1,13.9200819672131,29.9
3.06666666666667,11.7717771238151,29.8036994617644,6.63476459723028,-0.00392462324317844,1,13.9200819672131,29.9
3.1,11.7710048364112,30.0247916763524,6.63085183306484,-0.00391276416543462,1,13.9200819672131,29.9
3.13333333333333,11.7701766085405,30.2457535621342,6.62695829419949,-0.00389353886535115,1,13.9200819672131,29.9
3.16666666666667,11.7692893514656,30.4665858512245,6.6230909321332,-0.00386736206629212,1,13.9200819672131,29.9
3.2,11.7683431978072,30.6872895029269,6.61925566003783,-0.00383527209536805,1,13.9200819672131,29.9
3.23333333333333,11.7673401972986,30.9078656580266,6.61545685822901,-0.00379880180882264,1,13.9200819672131,29.9
3.26666666666667,11.7662833444786,31.1283155806376,6.61169718166542,-0.00375967656358611,1,13.9200819672131,29.9
3.3,11.7651759311857,31.348640681398,6.60798921315469,-0.00370796851072708,1,13.9200819672131,29.9
3.33333333333333,11.7640211074122,31.5688562424307,6.60568637949823,-0.00230283365646144,1,13.9200819672131,29.9
3.36666666666667,11.7628213542858,31.7890682991188,6.60820125951779,0.00251488001955469,1,13.9200819672131,29.9
3.4,11.7615783671888,32.0094639100567,6.61676624737438,0.00856498785659099,1,13.9200819672131,29.9
3.43333333333333,11.760293230603,32.2302460074874,6.63136807274151,0.0146018253671345,1,13.9200819672131,29.9
3.46666666666667,11.7589664731376,32.4516102520177,6.65162677567754,0.0202587029360259,4,13.9200819672131,29.9
3.5,11.7575980881913,32.6737369781125,6.67703852556506,0.0254117498875246,4,13.9200819672131,29.9
3.53333333333333,11.7561875634945,32.8967877426458,6.70697594753045,0.0299374219653838,4,13.9200819672131,29.9
3.56666666666667,11.754733940391,33.1209029433485,6.74082294480314,0.0338469972726925,4,13.9200819672131,29.9
3.6,11.7532358885675,33.3462035333957,6.77802886070164,0.0372059158985003,4,13.9200819672131,29.9
3.63333333333333,11.7516918074794,33.5727931106207,6.81810175034697,0.0400728896453311,4,13.9200819672131,29.9
3.66666666666667,11.7500999448402,33.8007597512277,6.8606018539384,0.0425001035914274,4,13.9200819672131,29.9
3.7,11.7484585145684,34.0301777572281,6.90514309357278,0.0445412396343796,4,13.9200819672131,29.9
3.73333333333333,11.7467657969838,34.2611094398029,6.95139070044607,0.0462476068732922,4,13.9200819672131,29.9
3.76666666666667,11.7450202103384,34.493606688458,6.99905300470344,0.0476623042573685,4,13.9200819672131,29.9
3.8,11.7432203480512,34.7277123110231,7.04787558840997,0.0488225837065288,4,13.9200819672131,29.9
3.83333333333333,11.7413649826329,34.9634611941233,7.09763765214571,0.0497620637357468,4,13.9200819672131,29.9
3.86666666666667,11.7394530423935,35.2008814232156,7.1481513110759,0.0505136589301873,4,13.9200819672131,29.9
3.9,11.7374835714584,35.4399953330724,7.19925909201946,0.0511077809435632,4,13.9200819672131,29.9
3.93333333333333,11.735455684543,35.6808204319606,7.2508262068771,0.0515671148576358,4,13.9200819672131,29.9
3.96666666666667,11.733368528619,35.9233698365174,7.30272165963321,0.0518954527561108,4,13.9200819672131,29.9
4,11.7312212574776,36.1676523019291,7.35481575239181,0.0520940927585949,4,13.9200819672131,29.9
4.03333333333333,11.7290130180662,36.4136723754803,7.4069869161295,0.0521711637376896,4,13.9200819672131,29.9
4.06666666666667,11.7267429472461,36.6614307412696,7.4591251281039,0.0521382119744063,4,13.9200819672131,29.9
4.1,11.7244101768097,36.9109246284966,7.51113279975306,0.0520076716491582,4,13.9200819672131,29.9
4.13333333333333,11.7220138445836,37.1621480540625,7.56291227635724,0.0517794766041764,4,13.9200819672131,29.9
4.16666666666667,11.7195531087126,37.4150917967877,7.61436857575724,0.051456299399999,4,13.9200819672131,29.9
4.2,11.7170271618431,37.6697431790087,7.66538002618504,0.0510114504277999,4,13.9200819672131,29.9
4.23333333333333,11.7144352480509,37.9260851696502,7.71582496539937,0.050444939214338,4,13.9200819672131,29.9
4.26666666666667,11.711776654786,38.1840978946257,7.765661705388,0.0498367399886286,4,13.9200819672131,29.9
4.3,11.7090506872435,38.4437615762237,7.81492626860862,0.0492645632206177,4,13.9200819672131,29.9
4.33333333333333,11.7062566546437,38.7050577524395,7.86365295569549,0.0487266870868748,4,13.9200819672131,29.9
4.36666666666667,11.703393873038,38.9679685884719,7.91184190123024,0.0481889455347471,4,13.9200819672131,29.9
4.4,11.7004616712268,39.2324759448571,7.95948433854875,0.0476424373185118,4,13.9200819672131,29.9
