Time,x_ego,y_ego,velocity,acceleration,action,x_ped,y_ped
0,11.8,8.9,5,0,1,15.5,29.9
0.0333333333333333,11.7999987949697,9.0666076888414,4.99642261544275,-0.00357738455724732,1,15.5,29.9
0.0666666666666667,11.7999904468139,9.23309265308902,4.99264758451244,-0.00377503093031262,1,15.5,29.9
0.1,11.7999676315905,9.39944929663902,4.98873137661448,-0.00391620789795599,1,15.5,29.9
0.133333333333333,11.7999253443025,9.56567362302963,4.98471445973142,-0.00401691688306549,1,15.5,29.9
0.166666666666667,11.7998611901133,9.73176278200288,4.98062581754722,-0.00408864218420302,1,15.5,29.9
0.2,11.7997747985025,9.89771474473886,4.97648620385901,-0.00413961368820281,1,15.5,29.9
0.233333333333333,11.7996672079334,10.0635280713403,4.97231048315195,-0.00417572070706385,1,15.5,29.9
0.266666666666667,11.79954031699,10.2292017443413,4.96810930834103,-0.00420117481091431,1,15.5,29.9
0.3,11.7993964483462,10.3947350494097,4.9638903196536,-0.00421898868743575,1,15.5,29.9
0.333333333333333,11.7992380323578,10.560127489774,4.959659000013,-0.0042313196405992,1,15.5,29.9
0.366666666666667,11.7990673924357,10.7253787247726,4.95541928561111,-0.00423971440188886,1,15.5,29.9
0.4,11.7988866048362,10.8904885256858,4.95117400253717,-0.0042452830739439,1,15.5,29.9
0.433333333333333,11.7986974077218,11.0554567439764,4.94692517968743,-0.00424882284973283,1,15.5,29.9
0.466666666666667,11.7985011430999,11.2202832884546,4.94267427334673,-0.0042509063407028,1,15.5,29.9
0.5,11.7982987252752,11.384968108872,4.93842232845234,-0.00425194489438852,1,15.5,29.9
0.533333333333333,11.7980906367625,11.5495111841522,4.93417009436637,-0.00425223408597386,1,15.5,29.9
0.566666666666667,11.7978769551936,11.7139125139682,4.92991810797245,-0.00425198639391589,1,15.5,29.9
0.6,11.7976574126704,11.8781721127369,4.92566675334543,-0.00425135462702197,1,15.5,29.9
0.633333333333333,11.7974314838275,12.042290005358,4.92141630464839,-0.00425044869704294,1,15.5,29.9
0.666666666666667,11.7971984929219,12.2062662242088,4.91716695701432,-0.00424934763407059,1,15.5,29.9
0.7,11.7969577258001,12.3701008070382,4.91291884880244,-0.00424810821188171,1,15.5,29.9
0.733333333333333,11.7967085311291,12.5337937954962,4.90867207765817,-0.00424677114426686,1,15.5,29.9
0.766666666666667,11.7964503972852,12.6973452341065,4.90442671213443,-0.00424536552374111,1,15.5,29.9
0.8,11.7961829961959,12.8607551695381,4.90018280014522,-0.00424391198920659,1,15.5,29.9
0.833333333333333,11.7959061919119,13.0240236500743,4.89594037514769,-0.00424242499752658,1,15.5,29.9
0.866666666666667,11.7956200181329,13.1871507252088,4.8916994606555,-0.00424091449219066,1,15.5,29.9
0.9,11.7953246338784,13.3501364453264,4.88746007347567,-0.00423938717983319,1,15.5,29.9
0.933333333333333,11.7950202690301,13.512980861443,4.88322222593709,-0.00423784753857603,1,15.5,29.9
0.966666666666667,11.7947071713361,13.6756840249954,4.87898592732797,-0.004236298609122,1,15.5,29.9
1,11.7943855640308,13.8382459876751,4.87475118474906,-0.00423474257891154,1,15.5,29.9
1.03333333333333,11.7940556193639,14.0006668013077,4.87051800358325,-0.00423318116581584,1,15.5,29.9
1.06666666666667,11.7937174490986,14.1629465177715,4.86628638775682,-0.00423161582642173,1,15.5,29.9
1.1,11.7933711094041,14.3250851889526,4.86205633992217,-0.00423004783465775,1,15.5,29.9
1.13333333333333,11.7930166152196,14.4870828667276,4.8578278616372,-0.00422847828497019,1,15.5,29.9
1.16666666666667,11.7926539583672,14.6489396029631,4.85360095356969,-0.00422690806750836,1,15.5,29.9
1.2,11.7922831243247,14.8106554495235,4.84937561572204,-0.004225337847652,1,15.5,29.9
1.23333333333333,11.7919035337795,14.9722304572295,4.8451518737689,-0.00422374195313235,1,15.5,29.9
1.26666666666667,11.7915114938411,15.1336646708765,4.84092979937,-0.00422207439889988,1,15.5,29.9
1.3,11.7910990431972,15.2949581260809,4.83670945884273,-0.00422034052727227,1,15.5,29.9
1.33333333333333,11.7906577690754,15.4561108554305,4.83249085666395,-0.0042186021787769,1,15.5,29.9
1.36666666666667,11.790182265182,15.6171228949828,4.82827394231484,-0.00421691434911153,1,15.5,29.9
1.4,11.7896702521302,15.7779942851543,4.82405864094152,-0.00421530137332304,1,15.5,29.9
1.43333333333333,11.7891218387319,15.9387250702754,4.81984487231582,-0.00421376862570089,1,15.5,29.9
1.46666666666667,11.7885387690232,16.099315298196,4.81563257183164,-0.00421230048418142,1,15.5,29.9
1.5,11.7879237605756,16.2597650198929,4.81142170193979,-0.00421086989184438,1,15.5,29.9
1.53333333333333,11.7872805775721,16.4200742906197,4.80721218349776,-0.00420951844202833,1,15.4972222222222,29.9
1.56666666666667,11.7866150982623,16.5802431738519,4.80300399332774,-0.0042081901700195,1,15.4888888888889,29.9
1.6,11.7859326665011,16.740271734745,4.79879721050168,-0.0042067828260608,1,15.475,29.9
1.63333333333333,11.7852372960792,16.9001600370613,4.7945919101976,-0.00420530030408184,1,15.4555555555556,29.9
1.66666666666667,11.7845317085973,17.0599081421307,4.79038815080519,-0.00420375939241691,1,15.4305555555556,29.9
1.7,11.7838174588966,17.2195161082408,4.78618597114249,-0.00420217966269387,1,15.4,29.9
1.73333333333333,11.7830951002824,17.3789839904208,4.78198539327066,-0.00420057787183215,1,15.3666666666667,29.9
1.76666666666667,11.7823643649081,17.5383118405474,4.77778642715238,-0.00419896611828197,1,15.3333333333333,29.9
1.8,11.7816243509943,17.6974997076966,4.77358907495966,-0.00419735219271811,1,15.3,29.9
1.83333333333333,11.7808737158265,17.8565476386813,4.76939333417114,-0.00419574078852047,1,15.2666666666667,29.9
1.86666666666667,11.780110872828,18.0154556787211,4.76519919940131,-0.00419413476982644,1,15.2333333333333,29.9
1.9,11.7793341857099,18.1742238721913,4.76100666326557,-0.00419253613574533,1,15.2,29.9
1.93333333333333,11.7785421466971,18.3328522633832,4.75681571669831,-0.0041909465672525,1,15.1666666666667,29.9
1.96666666666667,11.777733522452,18.4913408972007,4.75262634914027,-0.00418936755804111,1,15.1333333333333,29.9
2,11.7769074523828,18.6496898197139,4.74843854893508,-0.00418780020519449,1,15.1,29.9
2.03333333333333,11.7760634896041,18.807899078503,4.74425230411998,-0.00418624481509777,1,15.0666666666667,29.9
2.06666666666667,11.7752015834566,18.9659687227574,4.74006760357621,-0.00418470054377096,1,15.0333333333333,29.9
2.1,11.7743220118867,19.1238988031335,4.73588443829056,-0.00418316528564588,1,15,29.9
2.13333333333333,11.7734252797369,19.2816893714172,4.73170280236549,-0.00418163592507348,1,14.9666666666667,29.9
2.16666666666667,11.7725120032753,19.4393404800683,4.72752269345987,-0.00418010890561593,1,14.9333333333333,29.9
2.2,11.7715828013272,19.5968521817374,4.72334411252691,-0.00417858093296708,1,14.9,29.9
2.23333333333333,11.7706382094549,19.7542245288429,4.71916706294783,-0.00417704957907716,1,14.8666666666667,29.9
2.26666666666667,11.769678627008,19.9114575732695,4.71499154933471,-0.00417551361312096,1,14.8333333333333,29.9
2.3,11.7687042992485,20.06855136622,4.71081757632832,-0.00417397300639255,1,14.8,29.9
2.33333333333333,11.7677153298829,20.2255059582162,4.70664514765407,-0.00417242867424505,1,14.7666666666667,29.9
2.36666666666667,11.7667117145549,20.382321399216,4.7024742655736,-0.00417088208047556,1,14.7333333333333,29.9
2.4,11.7656933838419,20.5389977387981,4.6983049307437,-0.0041693348298919,1,14.7,29.9
2.43333333333333,11.7646605663258,20.6954768957125,4.69064931895426,-0.00765561178944552,1,14.6666666666667,29.9
2.46666666666667,11.763614649156,20.8514991585641,4.6708973942372,-0.0197519247170561,3,14.6333333333333,29.9
2.5,11.7625572871255,21.0067765248007,4.64596145698713,-0.0249359372500759,3,14.6,29.9
2.53333333333333,11.7614911384276,21.1608764526523,4.60025696864858,-0.0457044883385507,3,14.5666666666667,29.9
2.56666666666667,11.7604197396604,21.3132513330379,4.54246399335139,-0.0577929752971826,3,14.5333333333333,29.9
2.6,11.75934620486,21.4634692202883,4.47084240396021,-0.0716215893911798,3,14.5,29.9
2.63333333333333,11.7582737159691,21.6111270045456,4.38886245915114,-0.0819799448090697,3,14.4666666666667,29.9
2.66666666666667,11.7572056931429,21.7558217092495,4.29306206348068,-0.0958003956704623,3,14.4333333333333,29.9
2.7,11.7561455959952,21.8971791974747,4.18863372906988,-0.104428334410805,3,14.4,29.9
2.73333333333333,11.7550961673327,22.0349696995264,4.07904718120858,-0.109586547861293,3,14.3666666666667,29.9
2.76666666666667,11.754059545166,22.1690790887917,3.96777132122264,-0.111275859985944,3,14.3333333333333,29.9
2.8,11.7530375713764,22.2994507245099,3.85478622037578,-0.112985100846862,3,14.3,29.9
2.83333333333333,11.7520321113288,22.4260280267403,3.74011496909391,-0.11467125128187,3,14.2666666666667,29.9
2.86666666666667,11.7510448158994,22.5487835279162,3.6254805783498,-0.11463439074411,3,14.2333333333333,29.9
2.9,11.7500768836298,22.6677471969396,3.51260559354704,-0.112874984802758,3,14.2,29.9
2.93333333333333,11.7491294122027,22.7829490186007,3.39976792887614,-0.112837664670904,3,14.1666666666667,29.9
2.96666666666667,11.7482035751002,22.8943902830523,3.28696775320576,-0.112800175670372,3,14.1333333333333,29.9
3,11.7473004181285,23.0020722842056,3.17420534091373,-0.112762412292031,3,14.1,29.9
3.03333333333333,11.7464206537494,23.1060253817756,3.06322499237194,-0.110980348541793,3,14.0666666666667,29.9
3.06666666666667,11.745564668697,23.2063086314822,2.95400511125411,-0.109219881117829,3,14.0333333333333,29.9
3.1,11.7447327415725,23.302981076749,2.8465675753476,-0.107437535906505,3,14,29.9
3.13333333333333,11.7439250620085,23.3961017449045,2.7408904742604,-0.105677101087208,3,13.9666666666667,29.9
3.16666666666667,11.7431419694613,23.4857005793736,2.63525131798922,-0.105639156271173,3,13.9333333333333,29.9
3.2,11.7423839786234,23.5717788052766,2.52964968660251,-0.105601631386718,3,13.9,29.9
3.23333333333333,11.7416515908573,23.6543376349849,2.4240849993459,-0.105564687256603,3,13.8666666666667,29.9
3.26666666666667,11.7409453089865,23.7333782701579,2.31855655001338,-0.105528449332525,3,13.8333333333333,29.9
3.3,11.7402656405986,23.8089019735461,2.21307877211292,-0.105477777900452,3,13.8,29.9
3.33333333333333,11.7396130551274,23.8809155610717,2.10811044155865,-0.104968330554277,3,13.7666666666667,29.9
3.36666666666667,11.7389875713226,23.9494834628295,2.00649228943518,-0.101618152123472,3,13.7333333333333,29.9
3.4,11.7383891855309,24.014670991906,1.90532212389615,-0.101170165539029,3,13.7,29.9
3.43333333333333,11.7378180185825,24.0765241300261,1.80642437180663,-0.0988977520895187,3,13.6666666666667,29.9
3.46666666666667,11.7372739259817,24.1351183566143,1.70975874071109,-0.0966656310955418,3,13.6333333333333,29.9
3.5,11.7367567485328,24.1905260395239,1.61520573573314,-0.0945530049779444,3,13.6,29.9
3.53333333333333,11.7362663098887,24.2428164216574,1.52270206535486,-0.0925036703782844,3,13.5666666666667,29.9
3.56666666666667,11.7358024073289,24.2920567446994,1.43217736541186,-0.0905246999430007,3,13.5333333333333,29.9
3.6,11.735364816966,24.338311770419,1.34356732418167,-0.0886100412301851,3,13.5,29.9
3.63333333333333,11.7349532895816,24.3816445889543,1.25682530619838,-0.0867420179832918,3,13.4666666666667,29.9
3.66666666666667,11.7345675562628,24.4221162818575,1.1718815705732,-0.0849437356251839,3,13.4333333333333,29.9
3.7,11.734207331554,24.4597859181647,1.08869129291641,-0.0831902776567888,3,13.4,29.9
3.73333333333333,11.7338723036294,24.4947121287556,1.00728148216783,-0.0814098107485819,3,13.3666666666667,29.9
3.76666666666667,11.7335621175121,24.5269554824731,0.927724403228311,-0.0795570789395138,3,13.3333333333333,29.9
3.8,11.7332763761826,24.5565786422197,0.850064585113751,-0.0776598181145598,3,13.3,29.9
3.83333333333333,11.7330146625999,24.5836439757661,0.774226547319473,-0.0758380377942788,3,13.2666666666667,29.9
3.86666666666667,11.7327765697235,24.6082102185004,0.700095670427583,-0.0741308768918899,3,13.2333333333333,29.9
3.9,11.732561460653,24.6303614721375,0.629310474974308,-0.0707851954532746,3,13.2,29.9
3.93333333333333,11.7323686949355,24.6501802112633,0.560142524366586,-0.0691679506077227,3,13.1666666666667,29.9
3.96666666666667,11.7321978522909,24.6677207194037,0.492611520037148,-0.0675310043294375,3,13.1333333333333,29.9
4,11.7320482528414,24.6830666854628,0.428461548680549,-0.064149971356599,3,13.1,29.9
4.03333333333333,11.7319194545674,24.69627212308,0.364163493624892,-0.064298055055657,3,13.0666666666667,29.9
4.06666666666667,11.7318110229183,24.707389046805,0.303135018602757,-0.0610284750221354,3,13.0333333333333,29.9
4.1,11.7317222921386,24.7164961597166,0.243561575290355,-0.0595734433124012,3,13,29.9
4.13333333333333,11.731652854531,24.7236408743915,0.185388876098001,-0.0581726991923548,3,12.9666666666667,29.9
4.16666666666667,11.7316022995856,24.7288705806172,0.128686726397733,-0.0567021497002678,3,12.9333333333333,29.9
4.2,11.7315699461504,24.7322646383617,0.0752769800902109,-0.0534097463075218,3,12.9,29.9
4.23333333333333,11.7315548527723,24.733933344736,0.0252431052837736,-0.0500338748064373,3,12.8666666666667,29.9
4.26666666666667,11.7315548425727,24.7341337413987,0.0022385832619174,-0.0230045220218562,3,12.8333333333333,29.9
4.3,11.7315593080818,24.7341227107665,0.00233702325346308,9.84399915456872e-05,5,12.8,29.9
4.33333333333333,11.7315593080818,24.7341227107665,0.00260446873320531,0.000267445479742225,5,12.7666666666667,29.9
4.36666666666667,11.7315593080818,24.7341227107665,0.00299755212107783,0.000393083387872522,5,12.7333333333333,29.9
4.4,11.7315593080818,24.7341227107665,0.00347375048011932,0.000476198359041485,5,12.7,29.9
4.43333333333333,11.7315593080818,24.7341227107665,0.00397463633787609,0.000500885857756772,5,12.6666666666667,29.9
4.46666666666667,11.7315593080818,24.7341227107665,0.0044355898748632,0.00046095353698711,5,12.6333333333333,29.9
4.5,11.7315593080818,24.7341227107665,0.0047945174689178,0.000358927594054601,5,12.6,29.9
4.53333333333333,11.7315593080818,24.7341227107665,0.00499897198862456,0.000204454519706766,5,12.5666666666667,29.9
4.56666666666667,11.7315593080818,24.7341227107665,0.0050113041084257,1.23321198011363e-05,5,12.5333333333333,29.9
4.6,11.7315593080818,24.7341227107665,0.00481169700709001,-0.000199607101335688,5,12.5,29.9
4.63333333333333,11.7315593080818,24.7341227107665,0.00439913419767565,-0.000412562809414365,5,12.4666666666667,29.9
4.66666666666667,11.7315593080818,24.7341227107665,0.00379051140524008,-0.000608622792435566,5,12.4333333333333,29.9
4.7,11.7315593080818,24.7341227107665,0.0030182222466541,-0.000772289158585985,5,12.4,29.9
4.73333333333333,11.7315593080818,24.7341227107665,0.00212662196499866,-0.000891600281655437,5,12.3666666666667,29.9
4.76666666666667,11.7315593080818,24.7341227107665,0.00116780518174822,-0.000958816783250435,5,12.3333333333333,29.9
4.8,11.7315593080818,24.7341227107665,0.000197126969418262,-0.000970678212329962,5,12.3,29.9
4.83333333333333,11.7315593080818,24.7341227107665,0.000731141988540715,0.000534015019122453,5,12.2666666666667,29.9
4.86666666666667,11.7315593080818,24.7341227107665,0.0015676980199026,0.000836556031361884,5,12.2333333333333,29.9
4.9,11.7315593080818,24.7341227107665,0.00227137517797354,0.000703677158070946,5,12.2,29.9
4.93333333333333,11.7315593080818,24.7341227107665,0.00281144045990211,0.00054006528192857,5,12.1666666666667,29.9
4.96666666666667,11.7315593080818,24.7341227107665,0.00316893626444729,0.000357495804545179,5,12.1333333333333,29.9
5,11.7315593080818,24.7341227107665,0.00333707305068081,0.000168136786233516,5,12.1,29.9
5.03333333333333,11.7315593080818,24.7341227107665,0.00332074435878795,-1.63286918928554e-05,5,12.0666666666667,29.9
5.06666666666667,11.7315593080818,24.7341227107665,0.0031352911208492,-0.000185453237938758,5,12.0333333333333,29.9
5.1,11.7315593080818,24.7341227107665,0.00280468064394184,-0.00033061047690736,5,12,29.9
5.13333333333333,11.7315593080818,24.7341227107665,0.00235928733690429,-0.000445393307037551,5,11.9666666666667,29.9
5.16666666666667,11.7315593080818,24.7341227107665,0.00183346796462979,-0.000525819372274498,5,11.9333333333333,29.9
5.2,11.7315593080818,24.7341227107665,0.00126311573990884,-0.000570352224720952,5,11.9,29.9
5.23333333333333,11.7315593080818,24.7341227107665,0.000683357421094046,-0.00057975831881479,5,11.8666666666667,29.9
5.26666666666667,11.7315593080818,24.7341227107665,0.000126528740047609,-0.000556828681046438,5,11.8333333333333,29.9
5.3,11.7315593080818,24.7341227107665,0.000379470916786562,0.000252942176738953,5,11.8,29.9
5.33333333333333,11.7315593080818,24.7341227107665,0.000812380528579748,0.000432909611793187,5,11.7666666666667,29.9
5.36666666666667,11.7315593080818,24.7341227107665,0.00115630864896636,0.000343928120386615,5,11.7333333333333,29.9
5.4,11.7315593080818,24.7341227107665,0.00140200007478615,0.000245691425819791,5,11.7,29.9
5.43333333333333,11.7315593080818,24.7341227107665,0.00154667339290005,0.000144673318113893,5,11.6666666666667,29.9
5.46666666666667,11.7315593080818,24.7341227107665,0.00159348801491673,4.68146220166826e-05,5,11.6333333333333,29.9
5.5,11.7315593080818,24.7341227107665,0.00155071580379412,-4.27722111226057e-05,5,11.6,29.9
5.53333333333333,11.7315593080818,24.7341227107665,0.00143070199410694,-0.000120013809687186,5,11.5666666666667,29.9
5.56666666666667,11.7315593080818,24.7341227107665,0.00124870309016993,-0.000181998903937012,5,11.5333333333333,29.9
5.6,11.7315593080818,24.7341227107665,0.00102168646750418,-0.00022701662266575,5,11.5,29.9
5.63333333333333,11.7315593080818,24.7341227107665,0.000767168471588871,-0.000254517995915306,5,11.4666666666667,29.9
5.66666666666667,11.7315593080818,24.7341227107665,0.000502156061285666,-0.000265012410303204,5,11.4333333333333,29.9
5.7,11.7315593080818,24.7341227107665,0.000242242728515896,-0.00025991333276977,5,11.4,29.9
5.73333333333333,11.7315593080818,24.7341227107665,8.93781684056289e-07,-0.00024134894683184,5,11.3666666666667,29.9
5.76666666666667,11.7315593080818,24.7341227107665,0.000211059734914089,0.000210165953230033,5,11.3333333333333,29.9
5.8,11.7315593080818,24.7341227107665,0.000385714188953306,0.000174654454039217,5,11.3,29.9
5.83333333333333,11.7315593080818,24.7341227107665,0.00051818259344974,0.000132468404496434,5,11.2666666666667,29.9
5.86666666666667,11.7315593080818,24.7341227107665,0.000606499993336795,8.83173998870551e-05,5,11.2333333333333,29.9
5.9,11.7315593080818,24.7341227107665,0.00065137347572067,4.48734823838749e-05,5,11.2,29.9
5.93333333333333,11.7315593080818,24.7341227107665,0.000655810865874702,4.43739015403173e-06,5,11.1666666666667,29.9
5.96666666666667,11.7315593080818,24.7341227107665,0.000624664983633868,-3.11458822408337e-05,5,11.1333333333333,29.9
6,11.7315593080818,24.7341227107665,0.000564130567941655,-6.05344156922137e-05,5,11.1,29.9
6.03333333333333,11.7315593080818,24.7341227107665,0.000481228961839508,-8.29016061021467e-05,5,11.0666666666667,29.9
6.06666666666667,11.7315593080818,24.7341227107665,0.000383311809719084,-9.79171521204242e-05,5,11.0333333333333,29.9
6.1,11.7315593080818,24.7341227107665,0.00027760983018218,-0.000105701979536903,5,11,29.9
6.13333333333333,11.7315593080818,24.7341227107665,0.000170846684963967,-0.000106763145218213,5,10.9666666666667,29.9
6.16666666666667,11.7315593080818,24.7341227107665,6.89315446179694e-05,-0.000101915140345998,5,10.9333333333333,29.9
6.2,11.7315593080818,24.7341227107665,2.32624104429857e-05,-4.56691341749837e-05,5,10.9,29.9
6.23333333333333,11.7315593080818,24.7341227107665,0.00010203224838347,7.87698379404842e-05,5,10.8666666666667,29.9
6.26666666666667,11.7315593080818,24.7341227107665,0.000164896209559977,6.28639611765075e-05,5,10.8333333333333,29.9
6.3,11.7315593080818,24.7341227107665,0.000210569479534342,4.56732699743645e-05,5,10.8,29.9
6.33333333333333,11.7315593080818,24.7341227107665,0.000238876217023971,2.83067374896289e-05,5,10.7666666666667,29.9
6.36666666666667,11.7315593080818,24.7341227107665,0.000250611362039004,1.17351450150335e-05,5,10.7333333333333,29.9
6.4,11.7315593080818,24.7341227107665,0.000247366794905135,-3.24456713386923e-06,5,10.7,29.9
