Time,x_ego,y_ego,velocity,acceleration,action,x_ped,y_ped
0,11.8,15.9,7,0,1,15.5,29.9
0.0333333333333333,11.7999991556326,16.133270379394,6.9961557798823,-0.00384422011770269,1,15.3694444444444,29.9
0.0666666666666667,11.7999938724217,16.3664065988009,6.99196947498367,-0.00418630489862348,1,15.2444444444444,29.9
0.1,11.799981290911,16.5994007551861,6.98769500047537,-0.00427447450830609,1,15.125,29.9
0.133333333333333,11.799959928311,16.8322537848708,6.98349768237817,-0.0041973180971997,1,15.0111111111111,29.9
0.166666666666667,11.7999292675115,17.064967878987,6.9793558991536,-0.00414178322456493,1,14.9027777777778,29.9
0.2,11.7998902308873,17.2975446157907,6.9752541464412,-0.00410175271240032,1,14.8,29.9
0.233333333333333,11.79984768376,17.5299851346932,6.97118130879846,-0.00407283764274524,1,14.7027777777778,29.9
0.266666666666667,11.799808769135,17.7622902609552,6.96712944433606,-0.00405186446239814,1,14.6111111111111,29.9
0.3,11.799778514555,17.9944605944337,6.96309287222683,-0.00403657210923214,1,14.525,29.9
0.333333333333333,11.7997595188534,18.2264965730542,6.95906751129914,-0.00402536092769079,1,14.4444444444444,29.9
0.366666666666667,11.7997527315292,18.4583985184596,6.95505042757206,-0.00401708372707965,1,14.3694444444444,29.9
0.4,11.7997581149773,18.6901666689055,6.95103951437566,-0.00401091319639857,1,14.3,29.9
0.433333333333333,11.7997751219198,18.9218012029529,6.94703326205346,-0.00400625232219909,1,14.2361111111111,29.9
0.466666666666667,11.7998029869083,19.1533022564888,6.94303059046956,-0.00400267158389589,1,14.1777777777778,29.9
0.5,11.7998408717091,19.3846699349123,6.93903072722426,-0.00399986324530222,1,14.125,29.9
0.533333333333333,11.7998879202309,19.6159043218399,6.93503311971083,-0.00399760751343603,1,14.0777777777778,29.9
0.566666666666667,11.7999432716096,19.8469473541381,6.92754957086962,-0.00748354884120594,1,14.0361111111111,29.9
0.6,11.8000060645131,20.0776257949387,6.91315785656378,-0.0143917143058419,1,14,29.9
0.633333333333333,11.800074629283,20.3077380870565,6.89358086212679,-0.019576994436985,3,13.9694444444444,29.9
0.666666666666667,11.8001446559175,20.5371688057373,6.87226354905339,-0.0213173130733972,3,13.9444444444444,29.9
0.7,11.8002126866032,20.7658603115777,6.84922812899352,-0.0230354200598768,3,13.925,29.9
0.733333333333333,11.8002768024938,20.9938127458877,6.82791920260832,-0.0213089263851973,3,13.9111111111111,29.9
0.766666666666667,11.8003362361456,21.2210262527914,6.80489248929834,-0.0230267133099833,3,13.9027777777778,29.9
0.8,11.8003910070018,21.4475009816386,6.78359248599566,-0.0213000033026773,3,13.9,29.9
0.833333333333333,11.8004416180837,21.6732657843866,6.76229693966268,-0.0212955463329836,3,13.9,29.9
0.866666666666667,11.8004888045389,21.8982921071669,6.73928375580927,-0.0230131838534033,3,13.9,29.9
0.9,11.8005333764115,22.1225226989852,6.71455316198009,-0.0247305938291849,3,13.9,29.9
0.933333333333333,11.8005760983442,22.3457847814177,6.68117340654966,-0.0333797554304258,3,13.9,29.9
0.966666666666667,11.8006176021731,22.5676458302558,6.63049155965259,-0.0506818468970724,3,13.9,29.9
1,11.8006583743752,22.7875004466547,6.56078799133337,-0.0697035683192224,3,13.9,29.9
1.03333333333333,11.8006987717014,23.0047146210229,6.47206568700851,-0.0887223043248531,3,13.9,29.9
1.06666666666667,11.8007390631977,23.2188564524533,6.37644800318134,-0.0956176838271778,3,13.9,29.9
1.1,11.8007794344596,23.4296961224554,6.27393676703369,-0.102511236147643,3,13.9,29.9
1.13333333333333,11.8008199248733,23.636830565055,6.1541355838417,-0.119801183191989,3,13.9,29.9
1.16666666666667,11.8008604362363,23.8396547857105,6.01532513751082,-0.138810446330882,3,13.9,29.9
1.2,11.8009007959717,24.0375929522229,5.86097452725839,-0.154350610252436,3,13.9,29.9
1.23333333333333,11.8009407902978,24.2301557953582,5.69280856133642,-0.168165965921966,3,13.9,29.9
1.26666666666667,11.8009801935359,24.4169693017263,5.51601776324994,-0.176790798086481,3,13.9,29.9
1.3,11.8010187622036,24.5976308204541,5.32369348497164,-0.192324278278297,3,13.9,29.9
1.33333333333333,11.8010562487049,24.7716803640021,5.11930388761369,-0.204389597357951,3,13.9,29.9
1.36666666666667,11.8010924504302,24.938773183486,4.9062948387918,-0.213009048821898,3,13.9,29.9
1.4,11.8011272071074,25.0986219851171,4.68466741757313,-0.221627421218664,3,13.9,29.9
1.43333333333333,11.8011604215954,25.2510837550576,4.46307669197255,-0.22159072560058,3,13.9,29.9
1.46666666666667,11.8011920576821,25.3961587766029,4.24143890676654,-0.221637785206016,3,13.9,29.9
1.5,11.8012221041706,25.5338442016217,4.01971067794477,-0.221728228821764,3,13.9,29.9
1.53333333333333,11.8012505672605,25.6641378853477,3.79793931105925,-0.221771366885518,3,13.9,29.9
1.56666666666667,11.8012774618075,25.7870390230434,3.57615867145809,-0.221780639601167,3,13.9,29.9
1.6,11.8013028034499,25.9025477633042,3.35439305729005,-0.22176561416804,3,13.9,29.9
1.63333333333333,11.8013266029242,26.0106649309083,3.13265993131712,-0.221733125972929,3,13.9,29.9
1.66666666666667,11.8013488630675,26.1113918281806,2.9109718276312,-0.221688103685913,3,13.9,29.9
1.7,11.8013699408947,26.2047300925551,2.68933767249647,-0.221634155134735,3,13.9,29.9
1.73333333333333,11.8013914410693,26.2906815943561,2.46776370122143,-0.221573971275044,3,13.9,29.9
1.76666666666667,11.8014147529987,26.3692483639793,2.24625410574968,-0.221509595471751,3,13.9,29.9
1.8,11.8014405757904,26.4404366024693,2.02529050048621,-0.220963605263466,3,13.9,29.9
1.83333333333333,11.801468993071,26.5042954378149,1.80675719711016,-0.218533303376053,3,13.8991319444444,29.9
1.86666666666667,11.8014996358346,26.5609230977361,1.59149521895531,-0.215261978154846,3,13.8965277777778,29.9
1.9,11.801531836814,26.6104339299029,1.37979268112886,-0.211702537826452,3,13.8921875,29.9
1.93333333333333,11.8015647686711,26.6529494864941,1.17180886421503,-0.207983816913824,3,13.8861111111111,29.9
1.96666666666667,11.8015975554609,26.6885953461558,0.967649110284318,-0.204159753930716,3,13.8782986111111,29.9
2,11.8016293572115,26.7175031149388,0.767578087640666,-0.200071022643651,3,13.86875,29.9
2.03333333333333,11.8016594287733,26.73981077511,0.571640665334482,-0.195937422306184,3,13.8574652777778,29.9
2.06666666666667,11.8016871556944,26.755656177116,0.379882747120882,-0.1917579182136,3,13.8444444444444,29.9
2.1,11.8017120768066,26.7651800048368,0.192373250876217,-0.187509496244666,3,13.8296875,29.9
2.13333333333333,11.80173389428,26.7685235112547,0.010201847679395,-0.182171403196822,3,13.8131944444444,29.9
2.16666666666667,11.8017533143637,26.7682760311106,0.00849478947168382,-0.00170705820771122,5,13.7949652777778,29.9
2.2,11.801771525293,26.7680285512199,0.00426947973824925,-0.00422530973343457,5,13.775,29.9
2.23333333333333,11.801771525293,26.7680285512199,0.00520012197539902,0.000930642237149772,5,13.7532986111111,29.9
2.26666666666667,11.801771525293,26.7680285512199,0.00677538375786051,0.00157526178246149,5,13.7298611111111,29.9
2.3,11.801771525293,26.7680285512199,0.00879727130318874,0.00202188754532822,5,13.7046875,29.9
2.33333333333333,11.801771525293,26.7680285512199,0.0110131791243096,0.0022159078211209,5,13.6777777777778,29.9
2.36666666666667,11.801771525293,26.7680285512199,0.013152341378884,0.00213916225457434,5,13.6491319444444,29.9
2.4,11.801771525293,26.7680285512199,0.0149581143264935,0.00180577294760951,5,13.61875,29.9
2.43333333333333,11.801771525293,26.7680285512199,0.0162140098744457,0.0012558955479522,5,13.5866319444444,29.9
2.46666666666667,11.801771525293,26.7680285512199,0.0167622507918801,0.00054824091743445,5,13.5527777777778,29.9
2.5,11.801771525293,26.7680285512199,0.0165144203342629,-0.000247830457617223,5,13.5171875,29.9
2.53333333333333,11.801771525293,26.7680285512199,0.0154544813605194,-0.00105993897374346,5,13.4798611111111,29.9
2.56666666666667,11.801771525293,26.7680285512199,0.0136350070123561,-0.00181947434816331,5,13.4407986111111,29.9
2.6,11.801771525293,26.7680285512199,0.0111678768368218,-0.00246713017553438,5,13.4,29.9
2.63333333333333,11.801771525293,26.7680285512199,0.00821094353607672,-0.00295693330074504,5,13.3574652777778,29.9
2.66666666666667,11.801771525293,26.7680285512199,0.00495227345594608,-0.00325867008013064,5,13.3131944444444,29.9
2.7,11.801771525293,26.7680285512199,0.0015935255199543,-0.00335874793599178,5,13.2671875,29.9
2.73333333333333,11.801771525293,26.7680285512199,0.00166611729391781,7.25917739635121e-05,5,13.2194444444444,29.9
2.76666666666667,11.801771525293,26.7680285512199,0.00464428429137122,0.00297816699745341,5,13.1699652777778,29.9
2.8,11.801771525293,26.7680285512199,0.00718712996443843,0.00254284567306721,5,13.11875,29.9
2.83333333333333,11.801771525293,26.7680285512199,0.00917784543459923,0.0019907154701608,5,13.0657986111111,29.9
2.86666666666667,11.801771525293,26.7680285512199,0.0105417020944563,0.00136385665985704,5,13.0111111111111,29.9
2.9,11.801771525293,26.7680285512199,0.0112476490120785,0.00070594691762225,5,12.9546875,29.9
2.93333333333333,11.801771525293,26.7680285512199,0.0113067326154593,5.90836033807513e-05,5,12.8965277777778,29.9
2.96666666666667,11.801771525293,26.7680285512199,0.0107678014696822,-0.000538931145777039,5,12.8366319444444,29.9
3,11.801771525293,26.7680285512199,0.00971109433498719,-0.00105670713469503,5,12.775,29.9
3.03333333333333,11.801771525293,26.7680285512199,0.00824038493568486,-0.00147070939930233,5,12.7116319444444,29.9
3.06666666666667,11.801771525293,26.7680285512199,0.00647437512898393,-0.00176600980670092,5,12.6465277777778,29.9
3.1,11.801771525293,26.7680285512199,0.00453799608104962,-0.00193637904793431,5,12.5796875,29.9
3.13333333333333,11.801771525293,26.7680285512199,0.00255420378884977,-0.00198379229219984,5,12.5111111111111,29.9
3.16666666666667,11.801771525293,26.7680285512199,0.000636751496669576,-0.0019174522921802,5,12.4407986111111,29.9
3.2,11.801771525293,26.7680285512199,0.00111570152629346,0.000478950029623889,5,12.36875,29.9
3.23333333333333,11.801771525293,26.7680285512199,0.00262391681036466,0.0015082152840712,5,12.2949652777778,29.9
3.26666666666667,11.801771525293,26.7680285512199,0.00383074088633244,0.00120682407596778,5,12.2194444444444,29.9
3.3,11.801771525293,26.7680285512199,0.00470212837346957,0.000871387487137132,5,12.1421875,29.9
3.33333333333333,11.801771525293,26.7680285512199,0.00522664852488947,0.000524520151419893,5,12.0631944444444,29.9
3.36666666666667,11.801771525293,26.7680285512199,0.0054136816108345,0.000187033085945035,5,11.9824652777778,29.9
3.4,11.801771525293,26.7680285512199,0.0052905695487775,-0.000123112062056999,5,11.9,29.9
3.43333333333333,11.801771525293,26.7680285512199,0.0048990188179485,-0.000391550730828999,5,11.8157986111111,29.9
3.46666666666667,11.801771525293,26.7680285512199,0.00429106398982287,-0.000607954828125634,5,11.7298611111111,29.9
3.5,11.801771525293,26.7680285512199,0.00352488960275698,-0.000766174387065884,5,11.6421875,29.9
3.53333333333333,11.801771525293,26.7680285512199,0.00266078006449742,-0.00086410953825956,5,11.5527777777778,29.9
3.56666666666667,11.801771525293,26.7680285512199,0.00175742588649595,-0.000903354178001473,5,11.4616319444444,29.9
3.6,11.801771525293,26.7680285512199,0.00086876423663485,-0.000888661649861102,5,11.36875,29.9
3.63333333333333,11.801771525293,26.7680285512199,4.14769073098383e-05,-0.000827287329325012,5,11.2741319444444,29.9
3.66666666666667,11.801771525293,26.7680285512199,0.000686786609046782,0.000645309701736944,5,11.1777777777778,29.9
3.7,11.801771525293,26.7680285512199,0.00128844563178275,0.000601659022735968,5,11.0796875,29.9
3.73333333333333,11.801771525293,26.7680285512199,0.0017463155966078,0.000457869964825052,5,10.9798611111111,29.9
3.76666666666667,11.801771525293,26.7680285512199,0.00205329589575221,0.000306980299144408,5,10.8782986111111,29.9
3.8,11.801771525293,26.7680285512199,0.00221151725008294,0.000158221354330735,5,10.775,29.9
3.83333333333333,11.801771525293,26.7680285512199,0.00223106702702766,1.95497769447145e-05,5,10.6699652777778,29.9
3.86666666666667,11.801771525293,26.7680285512199,0.00212842063342215,-0.000102646393605504,5,10.5631944444444,29.9
3.9,11.801771525293,26.7680285512199,0.00192470784058341,-0.000203712792838742,5,10.4546875,29.9
3.93333333333333,11.801771525293,26.7680285512199,0.00164393581000511,-0.000280772030578302,5,10.3444444444444,29.9
3.96666666666667,11.801771525293,26.7680285512199,0.0013112771702533,-0.000332658639751807,5,10.2324652777778,29.9
4,11.801771525293,26.7680285512199,0.000951513418392686,-0.000359763751860617,5,10.11875,29.9
4.03333333333333,11.801771525293,26.7680285512199,0.00058770290491252,-0.000363810513480166,5,10.0032986111111,29.9
4.06666666666667,11.801771525293,26.7680285512199,0.000240120371506252,-0.000347582533406268,5,9.88611111111111,29.9
4.1,11.801771525293,26.7680285512199,7.45070456494803e-05,-0.000165613325856772,5,9.7671875,29.9
4.13333333333333,11.801771525293,26.7680285512199,0.000343462974161723,0.000268955928512243,5,9.64652777777778,29.9
4.16666666666667,11.801771525293,26.7680285512199,0.000558217761335783,0.00021475478717406,5,9.52413194444444,29.9
4.2,11.801771525293,26.7680285512199,0.000714345622305982,0.0001561278609702,5,9.4,29.9
4.23333333333333,11.801771525293,26.7680285512199,0.000811222458405871,9.68768360998887e-05,5,9.27413194444444,29.9
4.26666666666667,11.801771525293,26.7680285512199,0.000851551086937548,4.03286285316769e-05,5,9.14652777777778,29.9
4.3,11.801771525293,26.7680285512199,0.000840764169105889,-1.07869178316593e-05,5,9.0171875,29.9
4.33333333333333,11.801771525293,26.7680285512199,0.000786355260259403,-5.44089088464857e-05,5,8.88611111111111,29.9
4.36666666666667,11.801771525293,26.7680285512199,0.000697185603480125,-8.91696567792785e-05,5,8.75329861111111,29.9
4.4,11.801771525293,26.7680285512199,0.000582809119546115,-0.00011437648393401,5,8.61875,29.9
4.43333333333333,11.801771525293,26.7680285512199,0.000452851146916178,-0.000129957972629936,5,8.48246527777778,29.9
4.46666666666667,11.801771525293,26.7680285512199,0.000316468500190482,-0.000136382646725696,5,8.34444444444444,29.9
4.5,11.801771525293,26.7680285512199,0.000181909961929254,-0.000134558538261228,5,8.2046875,29.9
4.53333333333333,11.801771525293,26.7680285512199,5.61879575866771e-05,-0.000125722004342577,5,8.06319444444444,29.9
4.56666666666667,11.801771525293,26.7680285512199,5.51356413334927e-05,-1.05231625318442e-06,5,7.91996527777778,29.9
4.6,11.801771525293,26.7680285512199,0.000148053513322374,9.2917871988881e-05,5,7.775,29.9
4.63333333333333,11.801771525293,26.7680285512199,0.00022011628600924,7.20627726868661e-05,5,7.62829861111111,29.9
4.66666666666667,11.801771525293,26.7680285512199,0.000270349266389975,5.02329803807352e-05,5,7.47986111111111,29.9
4.7,11.801771525293,26.7680285512199,0.000299099346600263,2.87500802102882e-05,5,7.3296875,29.9
4.73333333333333,11.801771525293,26.7680285512199,0.000307830472939591,8.73112633932821e-06,5,7.17777777777778,29.9
4.76666666666667,11.801771525293,26.7680285512199,0.000298886344780951,-8.94412815864081e-06,5,7.02413194444444,29.9
4.8,11.801771525293,26.7680285512199,0.000275238190790301,-2.36481539906493e-05,5,6.86875,29.9
4.83333333333333,11.801771525293,26.7680285512199,0.000240233757908315,-3.50044328819862e-05,5,6.71163194444444,29.9
4.86666666666667,11.801771525293,26.7680285512199,0.000197361270700335,-4.28724872079799e-05,5,6.55277777777778,29.9
4.9,11.801771525293,26.7680285512199,0.000150039307020854,-4.73219636794811e-05,5,6.3921875,29.9
4.93333333333333,11.801771525293,26.7680285512199,2.82808409727609e-06,-0.000147211222923578,5,6.22986111111111,29.9
4.96666666666667,11.8017716679457,26.7684246405853,0.0203000569685407,0.0202972288844434,4,6.06579861111111,29.9
5,11.8017720741548,26.7695524794296,0.0473304095867454,0.0270303526182047,4,5.9,29.9
5.03333333333333,11.8017728242932,26.7716332740634,0.0774534892009341,0.0301230796141887,4,5.9,29.9
5.06666666666667,11.8017739561994,26.774766870565,0.11047942515551,0.0330259359545754,4,5.9,29.9
5.1,11.8017755285121,26.7791056156537,0.149743313652966,0.0392638884974566,4,5.9,29.9
5.13333333333333,11.8017776426825,26.784912534348,0.198544563448283,0.0488012497953166,4,5.9,29.9
5.16666666666667,11.8017803610046,26.7923291626454,0.246304772654683,0.0477602092063999,4,5.9,29.9
5.2,11.8017836878967,26.8013192369888,0.292957918679425,0.0466531460247422,4,5.9,29.9
5.23333333333333,11.8017876348009,26.8118464229267,0.338539732943633,0.0455818142642079,4,5.9,29.9
5.26666666666667,11.8017922211645,26.8238756506634,0.383085227615574,0.0445454946719413,4,5.9,29.9
5.3,11.8017974744731,26.8373729237538,0.426623895227991,0.0435386676124168,4,5.9,29.9
5.33333333333333,11.8018034193246,26.8523051512511,0.469180541710236,0.0425566464822449,4,5.9,29.9
5.36666666666667,11.8018100409781,26.8686398045825,0.510760901753323,0.0415803600430878,4,5.9,29.9
5.4,11.8018172934583,26.8863441878486,0.55135588157879,0.0405949798254667,4,5.9,29.9
5.43333333333333,11.8018250632438,26.9053854087214,0.590964575960113,0.0396086943813224,4,5.9,29.9
5.46666666666667,11.8018332102119,26.9257306547911,0.629593177024453,0.0386286010643409,4,5.9,29.9
5.5,11.8018415852912,26.9473473976221,0.667252824154411,0.0376596471299581,4,5.9,29.9
5.53333333333333,11.8018500350492,26.9702035544833,0.703961452578387,0.0367086284239755,4,5.9,29.9
5.56666666666667,11.8018584070736,26.994268190387,0.73977353008547,0.0358120775070827,4,5.9,29.9
5.6,11.8018665557727,27.0195124677656,0.774751033835284,0.0349775037498147,4,5.9,29.9
5.63333333333333,11.8018743477677,27.0459094118977,0.8089436686092,0.0341926347739152,4,5.9,29.9
5.66666666666667,11.8018816669622,27.0734335580358,0.842392069531055,0.0334484009218559,4,5.9,29.9
5.7,11.8018884190646,27.1020606885391,0.875130155606912,0.0327380860758563,4,5.9,29.9
5.73333333333333,11.8018945352826,27.131767635818,0.907186888314422,0.0320567327075099,4,5.9,29.9
5.76666666666667,11.801899974888,27.162531962767,0.938569583964283,0.0313826956498615,4,5.9,29.9
5.8,11.8019047261889,27.1943307066908,0.969245822653203,0.0306762386889202,4,5.9,29.9
5.83333333333333,11.8019088064189,27.22713990774,0.999193004094955,0.0299471814417515,4,5.9,29.9
5.86666666666667,11.801912260552,27.2609350897517,1.02840170651765,0.0292087024226976,4,5.9,29.9
5.9,11.8019151586748,27.2956915904168,1.05687047768915,0.0284687711714968,4,5.9,29.9
5.93333333333333,11.8019175920541,27.3313848313875,1.08460583039458,0.0277353527054343,4,5.9,29.9
5.96666666666667,11.801919668085,27.3679905486437,1.11161993762018,0.0270141072255983,4,5.9,29.9
6,11.8019215043524,27.4054849512685,1.13792907688286,0.0263091392626795,4,5.9,29.9
6.03333333333333,11.801923222154,27.4438449742109,1.16356402867108,0.0256349517882235,4,5.9,29.9
6.06666666666667,11.8019249399034,27.483048903767,1.18857051752361,0.0250064888525225,4,5.9,29.9
6.1,11.8019267664794,27.523076464813,1.21298803202404,0.0244175145004293,4,5.9,29.9
6.13333333333333,11.8019287949698,27.563908592725,1.23684985404657,0.0238618220225373,4,5.9,29.9
6.16666666666667,11.8019310972824,27.6055272513407,1.26018450239599,0.023334648349421,4,5.9,29.9
6.2,11.8019337199509,27.6479152922854,1.28301680512607,0.0228323027300723,4,5.9,29.9
6.23333333333333,11.8019366814073,27.691056345164,1.30536869639807,0.0223518912720033,4,5.9,29.9
6.26666666666667,11.8019399709212,27.7349347308528,1.32725980980204,0.0218911134039679,4,5.9,29.9
6.3,11.8019435495287,27.779536183734,1.34879282530098,0.0215330154989384,4,5.9,29.9
6.33333333333333,11.8019473541941,27.8248541899165,1.37032709866548,0.0215342733645025,4,5.9,29.9
6.36666666666667,11.8019513035369,27.8708968472008,1.3923609701532,0.0220338714877226,4,5.9,29.9
6.4,11.8019553036152,27.9176898470846,1.4154386492065,0.0230776790533007,4,5.9,29.9
6.43333333333333,11.8019592538105,27.9652769808374,1.44009529763522,0.024656648428721,4,5.9,29.9
6.46666666666667,11.8019630527089,28.0137192547529,1.46682497112393,0.0267296734887048,4,5.9,29.9
6.5,11.8019666037086,28.0630931876365,1.49606086705209,0.0292358959281611,4,5.9,29.9
