Time,x_ego,y_ego,velocity,acceleration,action,x_ped,y_ped
0,11.8,8.9,7,0,1,15.5,29.9
0.0333333333333333,11.8000016887344,9.13327037939326,6.99615578093914,-0.00384421906085919,1,15.3694444444444,29.9
0.0666666666666667,11.8000122551543,9.36640659876993,6.99196948665426,-0.00418629428488426,1,15.2444444444444,29.9
0.1,11.8000374181715,9.59940075490707,6.9876950403316,-0.00427444632265495,1,15.125,29.9
0.133333333333333,11.8000801433644,9.83225378363057,6.98349776590493,-0.00419727442667561,1,15.0111111111111,29.9
0.166666666666667,11.800141464954,10.0649678752576,6.97935603291146,-0.00414173299346654,1,14.9027777777778,29.9
0.2,11.800221222344,10.2975446069789,6.97525433648435,-0.00410169642711189,1,14.8,29.9
0.233333333333333,11.8003186243492,10.5299851167495,6.97118156631783,-0.00407277016651708,1,14.7027777777778,29.9
0.266666666666667,11.8004326224799,10.7622902279244,6.9671297633693,-0.00405180294853125,1,14.6111111111111,29.9
0.3,11.8005621202531,10.9944605385473,6.96309322674055,-0.00403653662874426,1,14.525,29.9
0.333333333333333,11.8007060675401,11.2264964852896,6.95906787279356,-0.00402535394699033,1,14.4444444444444,29.9
0.366666666666667,11.800863491358,11.4583983892297,6.95505077593033,-0.00401709686323404,1,14.3694444444444,29.9
0.4,11.801033503885,11.6901664886265,6.95103983989879,-0.00401093603153857,1,14.3,29.9
0.433333333333333,11.8012153120365,11.9218009623808,6.94703356260784,-0.00400627729095682,1,14.2361111111111,29.9
0.466666666666667,11.8014082368004,12.1533019468272,6.94303086778553,-0.0040026948223062,1,14.1777777777778,29.9
0.5,11.80161173872,12.3846695477517,6.93903098437494,-0.00399988341058588,1,14.125,29.9
0.533333333333333,11.8018254401102,12.6159038489939,6.93503336003867,-0.0039976243362716,1,14.0777777777778,29.9
0.566666666666667,11.8020491344404,12.8470049186093,6.93103759907824,-0.00399576096043575,1,14.0361111111111,29.9
0.6,11.8022827770967,13.0779728132927,6.92704341787797,-0.00399418120026329,1,14,29.9
0.633333333333333,11.8025264572086,13.3088075815605,6.9230506129621,-0.00399280491587728,1,13.9694444444444,29.9
0.666666666666667,11.8027803553024,13.539509266049,6.91905903814183,-0.00399157482026347,1,13.9444444444444,29.9
0.7,11.8030446947792,13.7700779051797,6.915068588206,-0.00399044993583164,1,13.925,29.9
0.733333333333333,11.8033196960274,14.0005135343676,6.91107918730522,-0.00398940090078348,1,13.9111111111111,29.9
0.766666666666667,11.8036055405376,14.2308161868966,6.90709078068657,-0.0039884066186433,1,13.9027777777778,29.9
0.8,11.8039023494364,14.4609858945497,6.90310332880811,-0.00398745187846217,1,13.9,29.9
0.833333333333333,11.8042101773616,14.6910226880573,6.89911680313561,-0.00398652567249691,1,13.9,29.9
0.866666666666667,11.8045290194759,14.9209265974096,6.89513118312334,-0.00398562001227631,1,13.9,29.9
0.9,11.8048588273165,15.1506976520706,6.89114645402546,-0.00398472909787628,1,13.9,29.9
0.933333333333333,11.8051995283685,15.3803358811213,6.88716260529183,-0.00398384873363078,1,13.9,29.9
0.966666666666667,11.8055510446649,15.6098413133552,6.88317962938039,-0.00398297591144026,1,13.9,29.9
1,11.8059133070136,15.8392139773437,6.87919752087525,-0.00398210850514502,1,13.9,29.9
1.03333333333333,11.8062862631629,16.068453901483,6.87521627583705,-0.00398124503819819,1,13.9,29.9
1.06666666666667,11.8066698798902,16.2975611140303,6.87123589133491,-0.00398038450213622,1,13.9,29.9
1.1,11.8070641402705,16.5265356431353,6.86725636512086,-0.00397952621404762,1,13.9,29.9
1.13333333333333,11.8074690380824,16.7553775168667,6.8632776954135,-0.00397866970735983,1,13.9,29.9
1.16666666666667,11.8078845714103,16.9840867632353,6.85929988076126,-0.003977814652246,1,13.9,29.9
1.2,11.8083107371316,17.2126634102124,6.8553229199593,-0.00397696080195686,1,13.9,29.9
1.23333333333333,11.8087475273273,17.4411074857431,6.851346811999,-0.00397610796029824,1,13.9,29.9
1.26666666666667,11.8091949279365,17.6694190177552,6.84737155603409,-0.00397525596491555,1,13.9,29.9
1.3,11.8096528209959,17.8975399030409,6.83990934801748,-0.00746220801660691,1,13.9,29.9
1.33333333333333,11.8101208286147,18.1252678102575,6.8237943391634,-0.0161150088540767,1,13.9,29.9
1.36666666666667,11.8105984458289,18.3523433980268,6.80077165221483,-0.0230226869485719,3,13.9,29.9
1.4,11.8110851289601,18.5785073638617,6.76909854848323,-0.0316731037315972,3,13.9,29.9
1.43333333333333,11.8115802386145,18.8034713846697,6.72877650275779,-0.040322045725441,3,13.9,29.9
1.46666666666667,11.8120830307282,19.0269184856631,6.67808498139852,-0.0506915213592736,3,13.9,29.9
1.5,11.8125925344226,19.2484452796156,6.61355983450827,-0.0645251468902508,3,13.9,29.9
1.53333333333333,11.8131075342508,19.4675619809852,6.53348133847807,-0.0800784960301977,3,13.9,29.9
1.56666666666667,11.8136266690925,19.6837501866134,6.43785221064086,-0.0956291278372117,3,13.9,29.9
1.6,11.8141487866711,19.8966358218079,6.33532939363406,-0.102522817006798,3,13.9,29.9
1.63333333333333,11.8146730833228,20.1060465243977,6.22935884820774,-0.105970545426323,3,13.9,29.9
1.66666666666667,11.8151988881593,20.3118964482806,6.12168558889436,-0.107673259313374,3,13.9,29.9
1.7,11.8157256224264,20.5141575458679,6.01403236229695,-0.10765322659741,3,13.9,29.9
1.73333333333333,11.8162527535041,20.7128304896626,5.90639936686985,-0.107632995427108,3,13.9,29.9
1.76666666666667,11.8167797450526,20.9079159620011,5.79878662349221,-0.107612743377638,3,13.9,29.9
1.8,11.8173061360701,21.0994433529602,5.69291618270169,-0.105870440790522,3,13.9,29.9
1.83333333333333,11.8178315525993,21.2874707530567,5.58878778002801,-0.104128402673678,3,13.8991319444444,29.9
1.86666666666667,11.8183556488176,21.4720566089711,5.48642297508332,-0.102364804944694,3,13.8965277777778,29.9
1.9,11.8188780374292,21.653230655282,5.38407767043162,-0.102345304651697,3,13.8921875,29.9
1.93333333333333,11.8193983588428,21.831022255782,5.28347404712856,-0.100603623303059,3,13.8861111111111,29.9
1.96666666666667,11.8199163523975,22.0054894670599,5.18461202158755,-0.0988620255410124,3,13.8782986111111,29.9
2,11.8204317831128,22.176690696698,5.08751325874848,-0.0970987628390674,3,13.86875,29.9
2.03333333333333,11.8209444373493,22.3446843391195,4.99215572796618,-0.0953575307822963,3,13.8574652777778,29.9
2.06666666666667,11.8214541185619,22.5095284117879,4.89853907588703,-0.0936166520791568,3,13.8444444444444,29.9
2.1,11.821960646555,22.6712812815904,4.80668462142781,-0.0918544544592148,3,13.8296875,29.9
2.13333333333333,11.8224637746828,22.8299725988712,4.7148478474004,-0.0918367740274135,3,13.8131944444444,29.9
2.16666666666667,11.8229631813624,22.9856018865019,4.62293638415471,-0.0919114632456894,3,13.7949652777778,29.9
2.2,11.8234585398663,23.1381651374417,4.53089693757876,-0.0920394465759502,3,13.775,29.9
2.23333333333333,11.8239495280802,23.287658895168,4.43877502733515,-0.0921219102436126,3,13.7532986111111,29.9
2.26666666666667,11.8244357445693,23.4340519332543,4.34485934320402,-0.0939156841311242,3,13.7298611111111,29.9
2.3,11.8249167047296,23.5772852553135,4.24919532760187,-0.0956640156021562,3,13.7046875,29.9
2.33333333333333,11.8253918342708,23.717271836174,4.15005622797212,-0.0991390996297454,3,13.6777777777778,29.9
2.36666666666667,11.8258602018512,23.8538099697181,4.04228845068712,-0.107767777285002,3,13.6491319444444,29.9
2.4,11.8263205011643,23.9865827911569,3.92413653278238,-0.11815191790474,3,13.61875,29.9
2.43333333333333,11.8267708503176,24.115100435593,3.78697652537011,-0.137160007412265,3,13.5866319444444,29.9
2.46666666666667,11.8272090362588,24.2387872044262,3.63428277511194,-0.152693750258173,3,13.5527777777778,29.9
2.5,11.8276324877469,24.3569811774779,3.45740839455365,-0.176874380558288,3,13.5171875,29.9
2.53333333333333,11.8280388092178,24.4691071502602,3.27020375223381,-0.187204642319847,3,13.4798611111111,29.9
2.56666666666667,11.8284265176334,24.5749073148023,3.07786314373468,-0.192340608499127,3,13.4407986111111,29.9
2.6,11.8287945256706,24.6742682657725,2.8838570587199,-0.194006085014777,3,13.4,29.9
2.63333333333333,11.8291417995782,24.7671054177405,2.68644434533772,-0.197412713382186,3,13.3574652777778,29.9
2.66666666666667,11.8294672938219,24.853334271833,2.48737072531085,-0.199073620026871,3,13.3131944444444,29.9
2.7,11.8297701693427,24.9329281610673,2.2883590419959,-0.199011683314945,3,13.2671875,29.9
2.73333333333333,11.8300497554181,25.0058906309727,2.08963209791705,-0.198726944078853,3,13.2194444444444,29.9
2.76666666666667,11.8303054915579,25.0722263115828,1.8910625243563,-0.198569573560751,3,13.1699652777778,29.9
2.8,11.8305371004289,25.1319913312123,1.69548324526067,-0.195579279095625,3,13.11875,29.9
2.83333333333333,11.8307444783982,25.1852626067005,1.5014612422711,-0.194022002989568,3,13.0657986111111,29.9
2.86666666666667,11.8309274384939,25.2320656553075,1.30739981695683,-0.19406142531427,3,13.0111111111111,29.9
2.9,11.8310857813524,25.2724010435898,1.11339450720477,-0.194005309752069,3,12.9546875,29.9
2.93333333333333,11.8312191762618,25.3062149200388,0.916132316609929,-0.197262190594837,3,12.8965277777778,29.9
2.96666666666667,11.8313275558064,25.33351884097,0.722801605451625,-0.193330711158304,3,12.8366319444444,29.9
3,11.8314111952796,25.3544157914692,0.531693807230315,-0.19110779822131,3,12.775,29.9
3.03333333333333,11.831470496367,25.369038525854,0.346365523954829,-0.185328283275487,3,12.7116319444444,29.9
3.06666666666667,11.8315059902693,25.3775518880599,0.165152647903173,-0.181212876051656,3,12.6465277777778,29.9
3.1,11.8315181287312,25.3800932185853,0.0120974634877095,-0.153055184415463,3,12.5796875,29.9
3.13333333333333,11.8315181678685,25.3799285616641,0.00844874618407086,-0.00364871730363866,5,12.5111111111111,29.9
3.16666666666667,11.8315154555719,25.3797639142319,0.00898349872159218,0.000534752537521319,5,12.4407986111111,29.9
3.2,11.8315154555719,25.3797639142319,0.0113867112043849,0.0024032124827927,5,12.36875,29.9
3.23333333333333,11.8315154555719,25.3797639142319,0.0139226752433455,0.00253596403896058,5,12.2949652777778,29.9
3.26666666666667,11.8315154555719,25.3797639142319,0.0163931029403063,0.0024704276969608,5,12.2194444444444,29.9
3.3,11.8315154555719,25.3797639142319,0.0185761629652283,0.00218306002492208,5,12.1421875,29.9
3.33333333333333,11.8315154555719,25.3797639142319,0.0202573264289901,0.0016811634637618,5,12.0631944444444,29.9
3.36666666666667,11.8315154555719,25.3797639142319,0.0212551360651993,0.000997809636209174,5,11.9824652777778,29.9
3.4,11.8315154555719,25.3797639142319,0.0214403517627174,0.000185215697518101,5,11.9,29.9
3.43333333333333,11.8315154555719,25.3797639142319,0.0207477285132222,-0.000692623249495206,5,11.8157986111111,29.9
3.46666666666667,11.8315154555719,25.3797639142319,0.0191804126630003,-0.0015673158502219,5,11.7298611111111,29.9
3.5,11.8315154555719,25.3797639142319,0.0168075558224417,-0.00237285684055858,5,11.6421875,29.9
3.53333333333333,11.8315154555719,25.3797639142319,0.0137562154523748,-0.00305134037006689,5,11.5527777777778,29.9
3.56666666666667,11.8315154555719,25.3797639142319,0.0101989246475267,-0.00355729080484811,5,11.4616319444444,29.9
3.6,11.8315154555719,25.3797639142319,0.00633847207531856,-0.00386045257220816,5,11.36875,29.9
3.63333333333333,11.8315154555719,25.3797639142319,0.00239144868472987,-0.00394702339058869,5,11.2741319444444,29.9
3.66666666666667,11.8315154555719,25.3797639142319,0.0014279885591243,-0.000963460125605576,5,11.1777777777778,29.9
3.7,11.8315154555719,25.3797639142319,0.00492288763574486,0.00349489907662057,5,11.0796875,29.9
3.73333333333333,11.8315154555719,25.3797639142319,0.00792582719423186,0.00300293955848699,5,10.9798611111111,29.9
3.76666666666667,11.8315154555719,25.3797639142319,0.0103081222699404,0.00238229507570857,5,10.8782986111111,29.9
3.8,11.8315154555719,25.3797639142319,0.0119855494650129,0.00167742719507252,5,10.775,29.9
3.83333333333333,11.8315154555719,25.3797639142319,0.0129205301870989,0.000934980722085971,5,10.6699652777778,29.9
3.86666666666667,11.8315154555719,25.3797639142319,0.0131209750154764,0.000200444828377513,5,10.5631944444444,29.9
3.9,11.8315154555719,25.3797639142319,0.0126362079103853,-0.000484767105091143,5,10.4546875,29.9
3.93333333333333,11.8315154555719,25.3797639142319,0.0115505471472491,-0.0010856607631362,5,10.3444444444444,29.9
3.96666666666667,11.8315154555719,25.3797639142319,0.00997521719237481,-0.00157532995487427,5,10.2324652777778,29.9
4,11.8315154555719,25.3797639142319,0.00803930363471959,-0.00193591355765522,5,10.11875,29.9
4.03333333333333,11.8315154555719,25.3797639142319,0.00588044708830643,-0.00215885654641317,5,10.0032986111111,29.9
4.06666666666667,11.8315154555719,25.3797639142319,0.00363591001677364,-0.00224453707153278,5,9.88611111111111,29.9
4.1,11.8315154555719,25.3797639142319,0.00143455302568447,-0.00220135699108917,5,9.7671875,29.9
4.13333333333333,11.8315154555719,25.3797639142319,0.000609864368982443,-0.00082468865670203,5,9.64652777777778,29.9
4.16666666666667,11.8315154555719,25.3797639142319,0.00240377776706106,0.00179391339807862,5,9.52413194444444,29.9
4.2,11.8315154555719,25.3797639142319,0.00387716231340449,0.00147338454634343,5,9.4,29.9
4.23333333333333,11.8315154555719,25.3797639142319,0.00498511217460791,0.00110794986120341,5,9.27413194444444,29.9
4.26666666666667,11.8315154555719,25.3797639142319,0.00570775384852915,0.000722641673921243,5,9.14652777777778,29.9
4.3,11.8315154555719,25.3797639142319,0.00604868576465848,0.000340931916129334,5,9.0171875,29.9
4.33333333333333,11.8315154555719,25.3797639142319,0.00603220637290925,-1.64793917492361e-05,5,8.88611111111111,29.9
4.36666666666667,11.8315154555719,25.3797639142319,0.00569963729955907,-0.000332569073350183,5,8.75329861111111,29.9
4.4,11.8315154555719,25.3797639142319,0.00510506759483174,-0.000594569704727326,5,8.61875,29.9
4.43333333333333,11.8315154555719,25.3797639142319,0.00431084159204742,-0.000794226002784322,5,8.48246527777778,29.9
4.46666666666667,11.8315154555719,25.3797639142319,0.00338308964337686,-0.000927751948670562,5,8.34444444444444,29.9
4.5,11.8315154555719,25.3797639142319,0.002387562030273,-0.000995527613103861,5,8.2046875,29.9
4.53333333333333,11.8315154555719,25.3797639142319,0.00138597616692751,-0.00100158586334548,5,8.06319444444444,29.9
4.56666666666667,11.8315154555719,25.3797639142319,0.000433030429805473,-0.00095294573712204,5,7.91996527777778,29.9
4.6,11.8315154555719,25.3797639142319,0.000425821039218179,-7.20939058729362e-06,5,7.775,29.9
4.63333333333333,11.8315154555719,25.3797639142319,0.0011557954435534,0.000729974404335224,5,7.62829861111111,29.9
4.66666666666667,11.8315154555719,25.3797639142319,0.0017334254196029,0.000577629976049502,5,7.47986111111111,29.9
4.7,11.8315154555719,25.3797639142319,0.00204786730893881,0.000314441889335906,5,7.3296875,29.9
4.73333333333333,11.831516414735,25.3800421156651,0.0126100782525989,0.0105622109436601,5,7.17777777777778,29.9
4.76666666666667,11.831518510008,25.3806498471695,0.0240685923669357,0.0114585141143368,5,7.02413194444444,29.9
4.8,11.8315220228339,25.3816685907947,0.0371223807782071,0.0130537884112714,5,6.86875,29.9
4.83333333333333,11.8315271273681,25.3831485417802,0.0516699081664505,0.0145475273882434,5,6.71163194444444,29.9
4.86666666666667,11.8315338923484,25.385109067618,0.0659203103955042,0.0142504022290537,5,6.55277777777778,29.9
4.9,11.8315422828714,25.387539144892,0.0798266845870446,0.0139063741915404,5,6.3921875,29.9
4.93333333333333,11.8315522614789,25.3904266211758,0.0933593498929824,0.0135326653059378,5,6.22986111111111,29.9
4.96666666666667,11.8315638899401,25.3937876874133,0.108241673942854,0.0148823240498712,5,6.06579861111111,29.9
5,11.8315773284182,25.3976665629345,0.124427455483931,0.0161857815410769,5,5.9,29.9
5.03333333333333,11.8315928351148,25.4021352817507,0.143628789108578,0.0192013336246474,4,5.9,29.9
5.06666666666667,11.8316108655687,25.4073223238254,0.167517681999934,0.0238888928913563,4,5.9,29.9
5.1,11.8316316727991,25.4132963686217,0.190838627412633,0.0233209454126992,4,5.9,29.9
5.13333333333333,11.8316554081159,25.420095316811,0.217001833855833,0.0261632064431993,4,5.9,29.9
5.16666666666667,11.8316825194781,25.4278416348241,0.247671387884532,0.0306695540286994,4,5.9,29.9
5.2,11.8317139524953,25.4368002454291,0.289735856417458,0.042064468532926,4,5.9,29.9
5.23333333333333,11.8317505564619,25.4472069099266,0.334545469200326,0.0448096127828683,4,5.9,29.9
5.26666666666667,11.8317924694214,25.4590941384989,0.37856247912001,0.0440170099196839,4,5.9,29.9
5.3,11.8318396243822,25.472434861291,0.421750912547659,0.0431884334276492,4,5.9,29.9
5.33333333333333,11.8318919554689,25.4872010448094,0.464087870432941,0.0423369578852812,4,5.9,29.9
5.36666666666667,11.8319493981731,25.5033639201211,0.505546875463437,0.0414590050304962,4,5.9,29.9
5.4,11.8320118727075,25.5208935986349,0.546091901640776,0.040545026177339,4,5.9,29.9
5.43333333333333,11.8320792357824,25.5397592226791,0.585701582586869,0.0396096809460927,4,5.9,29.9
5.46666666666667,11.8321512980058,25.5599294440859,0.624367094058287,0.0386655114714184,4,5.9,29.9
5.5,11.8322277817734,25.5813727800176,0.662088679682261,0.0377215856239738,4,5.9,29.9
5.53333333333333,11.8323083790573,25.6040578773716,0.698875184594178,0.0367865049119177,4,5.9,29.9
5.56666666666667,11.8323927787431,25.627954173226,0.734770236477254,0.0358950518830761,4,5.9,29.9
5.6,11.8324806779264,25.6530329648807,0.769833178470451,0.0350629419931963,4,5.9,29.9
5.63333333333333,11.8325717896928,25.6792673505345,0.804112731440836,0.0342795529703855,4,5.9,29.9
5.66666666666667,11.8326658499082,25.7066318978653,0.837648885989542,0.0335361545487062,4,5.9,29.9
5.7,11.8327626237984,25.7351023927077,0.870475079869072,0.0328261938795299,4,5.9,29.9
5.73333333333333,11.8328619118302,25.7646556504062,0.90261980900024,0.0321447291311678,4,5.9,29.9
5.76666666666667,11.8329635541042,25.7952692734111,0.93409595311707,0.0314761441168298,4,5.9,29.9
5.8,11.8330674300599,25.8269205217756,0.964872483640205,0.030776530523135,4,5.9,29.9
5.83333333333333,11.8331734577616,25.8595855973362,0.994923612818984,0.0300511291787792,4,5.9,29.9
5.86666666666667,11.8332815952591,25.8932401052541,1.02423790394551,0.0293142911265211,4,5.9,29.9
5.9,11.8333918395609,25.9278594177815,1.05281241255616,0.0285745086106597,4,5.9,29.9
5.93333333333333,11.8335042233145,25.9634189472484,1.08065234010103,0.0278399275448662,4,5.9,29.9
5.96666666666667,11.8336188095672,25.9998943868853,1.10776900607327,0.0271166659722386,4,5.9,29.9
6,11.8337356847473,26.0372618785423,1.13417770756788,0.0264087014946091,4,5.9,29.9
6.03333333333333,11.8338549505603,26.0754982043942,1.15990563527877,0.0257279277108886,4,5.9,29.9
6.06666666666667,11.8339767167134,26.1145814364511,1.18499900154558,0.02509336626681,4,5.9,29.9
6.1,11.8341010917822,26.1544911165339,1.20949834300511,0.024499341459532,4,5.9,29.9
6.13333333333333,11.8342281729435,26.1952080247285,1.23343774765525,0.0239394046501455,4,5.9,29.9
6.16666666666667,11.834358036662,26.2367139910695,1.25684634476659,0.0234085971113351,4,5.9,29.9
6.2,11.8344907308355,26.2789917501846,1.27974941786211,0.02290307309552,4,5.9,29.9
6.23333333333333,11.8346262688222,26.3220248279796,1.3021692383795,0.0224198205173933,4,5.9,29.9
6.26666666666667,11.834764625706,26.3657974522935,1.32412569176412,0.0219564533846206,4,5.9,29.9
6.3,11.8349057370495,26.4102944815523,1.34563674892051,0.0215110571563855,4,5.9,29.9
6.33333333333333,11.8350495002377,26.4555013441147,1.3667181378334,0.0210813889128891,4,5.9,29.9
6.36666666666667,11.8351957778531,26.5014038325878,1.38737424689407,0.0206561090606667,4,5.9,29.9
6.4,11.8353444028583,26.547987751054,1.40760443167392,0.0202301847798547,4,5.9,29.9
6.43333333333333,11.8354951869895,26.5952389512226,1.42741222079873,0.0198077891248138,4,5.9,29.9
6.46666666666667,11.8356479307838,26.643143458149,1.44680428643625,0.0193920656375193,4,5.9,29.9
6.5,11.8358024348897,26.6916877909492,1.4658174214419,0.0190131350056424,4,5.9,29.9
6.53333333333333,11.8359585198663,26.7408618722831,1.4846327990171,0.0188153775752029,4,5.9,29.9
