Time,x_ego,y_ego,velocity,acceleration,action,x_ped,y_ped
0,11.8,8.9,7,0,1,15.5,29.9
0.0333333333333333,11.7999967069701,9.1332703793903,6.9961557848882,-0.003844215111795,1,15.4502170138889,29.9
0.0666666666666667,11.799976102465,9.36640659865409,6.99196953026326,-0.00418625462494848,1,15.4008680555556,29.9
0.1,11.7999270346132,9.59940075386442,6.98769518926083,-0.00427434100243129,1,15.351953125,29.9
0.133333333333333,11.799843720538,9.83225377899641,6.98349807801611,-0.00419711124471522,1,15.3034722222222,29.9
0.166666666666667,11.7997241435068,10.0649678613223,6.97935653271929,-0.00414154529682076,1,15.2554253472222,29.9
0.2,11.7995686166783,10.297544574234,6.97525501348861,-0.00410151923067925,1,15.2078125,29.9
0.233333333333333,11.7993786828593,10.5299850517457,6.97118238778619,-0.00407262570241507,1,15.1606336805556,29.9
0.266666666666667,11.7991563866005,10.7622901136364,6.96713068937602,-0.0040516984101755,1,15.1138888888889,29.9
0.3,11.7989038660409,10.9944603550224,6.96309422053587,-0.00403646884015263,1,15.067578125,29.9
0.333333333333333,11.7986231689303,11.2264962103739,6.95906890521656,-0.00402531531930528,1,15.0217013888889,29.9
0.366666666666667,11.798316192585,11.4583979992342,6.95505182560898,-0.00401707960757669,1,14.9762586805556,29.9
0.4,11.7979846682591,11.6901659588608,6.95104089158013,-0.00401093402885611,1,14.93125,29.9
0.433333333333333,11.7976301424695,11.9218002675224,6.94703460532168,-0.00400628625844757,1,14.8866753472222,29.9
0.466666666666667,11.7972539392925,12.1533010611147,6.94303189363951,-0.00400271168216904,1,14.8425347222222,29.9
0.5,11.7968571106724,12.384668445008,6.93903198807563,-0.00399990556388552,1,14.798828125,29.9
0.533333333333333,11.7964403930982,12.6159025024999,6.93503433885588,-0.00399764921974821,1,14.7555555555556,29.9
0.566666666666667,11.7960041893084,12.8470033008657,6.93103855287955,-0.00399578597632644,1,14.7127170138889,29.9
0.6,11.7955485863046,13.0779708957198,6.92704434895901,-0.00399420392053695,1,14.6703125,29.9
0.633333333333333,11.795073410288,13.3088053341908,6.9230515255705,-0.00399282338851936,1,14.6283420138889,29.9
0.666666666666667,11.7945783092368,13.5395066572646,6.91905993774533,-0.00399158782516285,1,14.5868055555556,29.9
0.7,11.794062847523,13.7700749015308,6.91506948064098,-0.00399045710435164,1,14.545703125,29.9
0.733333333333333,11.7935265953934,14.0005101004928,6.91108007796145,-0.0039894026795313,1,14.5050347222222,29.9
0.766666666666667,11.7929691989455,14.230812285543,6.9070916738607,-0.00398840410074541,1,14.4648003472222,29.9
0.8,11.7923904219857,14.4609814866722,6.9031042273146,-0.00398744654610184,1,14.425,29.9
0.833333333333333,11.7917901579742,14.6910177329643,6.89911770821115,-0.00398651910345649,1,14.3856336805556,29.9
0.866666666666667,11.7911684163472,14.9209210529187,6.89513209460481,-0.00398561360633476,1,14.3467013888889,29.9
0.9,11.7905252916102,15.1506914746424,6.89114737073089,-0.00398472387391902,1,14.308203125,29.9
0.933333333333333,11.7898609251705,15.3803290259502,6.8871635254997,-0.00398384523119599,1,14.2701388888889,29.9
0.966666666666667,11.7891755380577,15.6098046688952,6.8814366503063,-0.00572687519339432,1,14.2325086805556,29.9
1,11.7884694111256,15.8390603046839,6.87396697154385,-0.00746967876245463,1,14.1953125,29.9
1.03333333333333,11.7877430281142,16.0679517362104,6.8595884501461,-0.0143785213977514,1,14.1585503472222,29.9
1.06666666666667,11.7869969456636,16.2963060880367,6.8417462730287,-0.0178421771173962,1,14.1222222222222,29.9
1.1,11.7862315076191,16.5240369801277,6.8221850062061,-0.0195612668225991,3,14.086328125,29.9
1.13333333333333,11.7854470771359,16.7510580500559,6.79916120178825,-0.0230238044178517,3,14.0508680555556,29.9
1.16666666666667,11.784644131214,16.977253889383,6.77267551621009,-0.0264856855781552,3,14.0158420138889,29.9
1.2,11.78382328136,17.2024804097483,6.74100652066044,-0.0316689955496541,3,13.98125,29.9
1.23333333333333,11.7829845632712,17.4265361434047,6.70243306441104,-0.0385734562494013,3,13.9470920138889,29.9
1.26666666666667,11.7821252425301,17.649277053925,6.66212265524497,-0.0403104091660698,3,13.9133680555556,29.9
1.3,11.7812431619772,17.8706169000271,6.61837552584376,-0.0437471294012042,3,13.9133680555556,29.9
1.33333333333333,11.7803374516909,18.0904985321291,6.57463657666552,-0.0437389491782421,3,13.9133680555556,29.9
1.36666666666667,11.779408041463,18.308922222526,6.53090604212998,-0.0437305345355465,3,13.9133680555556,29.9
1.4,11.7784555947742,18.5258591877224,6.48544017053974,-0.0454658715902365,3,13.9133680555556,29.9
1.43333333333333,11.7774811292299,18.7412806554644,6.43998318835787,-0.0454569821818644,3,13.9133680555556,29.9
1.46666666666667,11.7764858285642,18.9551582245609,6.39281309304302,-0.0471700953148586,3,13.9133680555556,29.9
1.5,11.7754710397026,19.1674348000764,6.34393017550939,-0.0488829175336267,3,13.9133680555556,29.9
1.53333333333333,11.7744383478382,19.3779955297806,6.289868729522,-0.0540614459873918,3,13.9133680555556,29.9
1.56666666666667,11.7733896949733,19.5866387477883,6.22888559725965,-0.0609831322623497,3,13.9133680555556,29.9
1.6,11.7723274107619,19.7930763489458,6.15753759567199,-0.0713480015876629,3,13.9133680555556,29.9
1.63333333333333,11.7712536103472,19.9970780399982,6.08273649519373,-0.0748011004782514,3,13.9133680555556,29.9
1.66666666666667,11.7701697932324,20.1985578001484,6.00622701132373,-0.0765094838700024,3,13.9133680555556,29.9
1.7,11.7690771697817,20.3974873974539,5.92973178578917,-0.0764952255345657,3,13.9133680555556,29.9
1.73333333333333,11.7679768926874,20.5938386118923,5.85152894591712,-0.0782028398720467,3,13.9133680555556,29.9
1.76666666666667,11.7668698975435,20.7876119360958,5.77506306885013,-0.076465877066985,3,13.9133680555556,29.9
1.8,11.7657568921588,20.9788365672869,5.69861195425777,-0.0764511145923636,3,13.9133680555556,29.9
1.83333333333333,11.7646386341461,21.1675130001201,5.62217562187129,-0.0764363323864812,3,13.9133680555556,29.9
1.86666666666667,11.7635158105988,21.3536417292272,5.54575406075985,-0.0764215611114354,3,13.9133680555556,29.9
1.9,11.7623892130148,21.5371945463483,5.46762511975415,-0.078128941005704,3,13.9133680555556,29.9
1.93333333333333,11.7612596193165,21.7181432459223,5.38951106257758,-0.0781140571765686,3,13.9133680555556,29.9
1.96666666666667,11.7601281386021,21.896401856314,5.30622370507539,-0.0832873575021944,3,13.9133680555556,29.9
2,11.7589962444848,22.0718266494385,5.21948568906737,-0.0867380160080202,3,13.9133680555556,29.9
2.03333333333333,11.757865980644,22.2441874431796,5.12238714124054,-0.0970985478268256,3,13.9133680555556,29.9
2.06666666666667,11.7567404890151,22.4130811467941,5.0114631780546,-0.110923963185939,3,13.9133680555556,29.9
2.1,11.7556227387906,22.5781621236062,4.89362576530004,-0.117837412754558,3,13.9133680555556,29.9
2.13333333333333,11.7545146101226,22.7392003128018,4.76889786232045,-0.124727902979597,3,13.9133680555556,29.9
2.16666666666667,11.7534160005129,22.8959947440384,4.63900270640999,-0.129895155910459,3,13.9133680555556,29.9
2.2,11.7523278352711,23.0482566246935,4.49691975035814,-0.142082956051844,3,13.9133680555556,29.9
2.23333333333333,11.7512528449847,23.1955786437405,4.34262295630758,-0.154296794050559,3,13.9133680555556,29.9
2.26666666666667,11.7501948908224,23.3375254734089,4.17441743748938,-0.168205518818204,3,13.9133680555556,29.9
2.3,11.7491578764772,23.4737783743441,4.00099386042109,-0.173423577068293,3,13.9133680555556,29.9
2.33333333333333,11.7481451753236,23.6041925797028,3.82410045688609,-0.176893403534995,3,13.9133680555556,29.9
2.36666666666667,11.7471605400073,23.7286240673788,3.64203388823175,-0.182066568654343,3,13.9133680555556,29.9
2.4,11.746207369691,23.8470161916802,3.46174003362023,-0.180293854611519,3,13.9133680555556,29.9
2.43333333333333,11.7452883677323,23.9594278622266,3.28320625844774,-0.178533775172491,3,13.9133680555556,29.9
2.46666666666667,11.7444063654001,24.0658891849641,3.10471659283103,-0.178489665616708,3,13.9133680555556,29.9
2.5,11.743564215092,24.1664017448392,2.92627531903513,-0.178441273795899,3,13.9133680555556,29.9
2.53333333333333,11.7427647068789,24.2609385496135,2.74616326708063,-0.180112051954499,3,13.9133680555556,29.9
2.56666666666667,11.7420105046147,24.349443629494,2.56436093854537,-0.181802328535266,3,13.9133680555556,29.9
2.6,11.7413038980125,24.4318610776496,2.38089195420102,-0.183468984344349,3,13.9133680555556,29.9
2.63333333333333,11.7406465429873,24.5081641672766,2.1974925650695,-0.183399389131515,3,13.9133680555556,29.9
2.66666666666667,11.7400393676739,24.5783632616118,2.01491871083577,-0.182573854233729,3,13.9133680555556,29.9
2.7,11.7394825763271,24.6425146561882,1.83479440620839,-0.180124304627388,3,13.9133680555556,29.9
2.73333333333333,11.7389760268158,24.7006829600358,1.65595564569684,-0.178838760511543,3,13.9133680555556,29.9
2.76666666666667,11.7385191034015,24.7529716900857,1.48202353415906,-0.173932111537784,3,13.9133680555556,29.9
2.8,11.7381108482403,24.7995166140408,1.31132340920305,-0.170700124956006,3,13.9133680555556,29.9
2.83333333333333,11.7377504646254,24.8404259658028,1.14387844752642,-0.167444961676637,3,13.9133680555556,29.9
2.86666666666667,11.737437152033,24.8758082014078,0.97970868686754,-0.164169760658876,3,13.9133680555556,29.9
2.9,11.7371701023734,24.905775241561,0.818994172266167,-0.160714514601372,3,13.9133680555556,29.9
2.93333333333333,11.7369484985252,24.9304433363162,0.661751465528237,-0.15724270673793,3,13.9133680555556,29.9
2.96666666666667,11.7367713416148,24.9499551168011,0.509623224775899,-0.152128240752338,3,13.9133680555556,29.9
3,11.7366376400007,24.9644531621216,0.360948140964674,-0.148675083811225,3,13.9133680555556,29.9
3.03333333333333,11.7365463869505,24.974081265088,0.217440513377207,-0.143507627587467,3,13.9133680555556,29.9
3.06666666666667,11.7364965759161,24.9789810700247,0.0774127225113738,-0.140027790865833,3,13.9133680555556,29.9
3.1,11.7364839373287,24.9797189520553,0.00649454627405725,-0.0709181762373165,3,13.9133680555556,29.9
3.13333333333333,11.7364844423227,24.9794489751961,0.00965395212847859,0.00315940585442134,5,13.9133680555556,29.9
3.16666666666667,11.7364903839653,24.9791790397751,0.00574924114883832,-0.00390471097964027,5,13.9133680555556,29.9
3.2,11.7364903839653,24.9791790397751,0.00667027080037416,0.000921029651535835,5,13.9133680555556,29.9
3.23333333333333,11.7364903839653,24.9791790397751,0.00790870524428482,0.00123843444391066,5,13.9133680555556,29.9
3.26666666666667,11.7364903839653,24.9791790397751,0.00930578050496804,0.00139707526068323,5,13.9133680555556,29.9
3.3,11.7364903839653,24.9791790397751,0.0106791127314433,0.00137333222647526,5,13.9133680555556,29.9
3.33333333333333,11.7364903839653,24.9791790397751,0.0118475547611561,0.00116844202971277,5,13.9133680555556,29.9
3.36666666666667,11.7364903839653,24.9791790397751,0.0126520012995767,0.000804446538420624,5,13.9133680555556,29.9
3.4,11.7364903839653,24.9791790397751,0.0129709886855725,0.000318987385995825,5,13.9133680555556,29.9
3.43333333333333,11.7364903839653,24.9791790397751,0.0127305512904331,-0.000240437395139436,5,13.9133680555556,29.9
3.46666666666667,11.7364903839653,24.9791790397751,0.0119083512247306,-0.000822200065702527,5,13.9133680555556,29.9
3.5,11.7364903839653,24.9791790397751,0.0105325600673847,-0.00137579115734583,5,13.9133680555556,29.9
3.53333333333333,11.7364903839653,24.9791790397751,0.00867632160707363,-0.00185623846031109,5,13.9133680555556,29.9
3.56666666666667,11.7364903839653,24.9791790397751,0.00644885523260999,-0.00222746637446364,5,13.9133680555556,29.9
3.6,11.7364903839653,24.9791790397751,0.0039843727484981,-0.00246448248411189,5,13.9133680555556,29.9
3.63333333333333,11.7364903839653,24.9791790397751,0.0014299873310189,-0.0025543854174792,5,13.9133680555556,29.9
3.66666666666667,11.7364903839653,24.9791790397751,0.00106629150700466,-0.000363695824014236,5,13.9133680555556,29.9
3.7,11.7364903839653,24.9791790397751,0.00336653834701872,0.00230024684001406,5,13.9133680555556,29.9
3.73333333333333,11.7364903839653,24.9791790397751,0.00535213256714159,0.00198559422012287,5,13.9133680555556,29.9
3.76666666666667,11.7364903839653,24.9791790397751,0.00693071364584913,0.00157858107870754,5,13.9133680555556,29.9
3.8,11.7364903839653,24.9791790397751,0.00804060019261938,0.00110988654677024,5,13.9133680555556,29.9
3.83333333333333,11.7364903839653,24.9791790397751,0.00865262411489513,0.000612023922275757,5,13.9133680555556,29.9
3.86666666666667,11.7364903839653,24.9791790397751,0.00876952685316424,0.000116902738269104,5,13.9133680555556,29.9
3.9,11.7364903839653,24.9791790397751,0.00842322317412694,-0.0003463036790373,5,13.9133680555556,29.9
3.93333333333333,11.7364903839653,24.9791790397751,0.00767035353932934,-0.000752869634797599,5,13.9133680555556,29.9
3.96666666666667,11.7364903839653,24.9791790397751,0.00658661642398054,-0.0010837371153488,5,13.9133680555556,29.9
4,11.7364903839653,24.9791790397751,0.00526039848839552,-0.00132621793558502,5,13.9133680555556,29.9
4.03333333333333,11.7364903839653,24.9791790397751,0.0037862074054912,-0.00147419108290432,5,13.9133680555556,29.9
4.06666666666667,11.7364903839653,24.9791790397751,0.00225836576874768,-0.00152784163674352,5,13.9133680555556,29.9
4.1,11.7364903839653,24.9791790397751,0.000765352581494147,-0.00149301318725354,5,13.9133680555556,29.9
4.13333333333333,11.7364903839653,24.9791790397751,0.000614910250387817,-0.00015044233110633,5,13.9133680555556,29.9
4.16666666666667,11.7364903839653,24.9791790397751,0.00181862685910798,0.00120371660872017,5,13.9133680555556,29.9
4.2,11.7364903839653,24.9791790397751,0.00279845107026592,0.000979824211157939,5,13.9133680555556,29.9
4.23333333333333,11.7364903839653,24.9791790397751,0.00352455711312257,0.000726106042856643,5,13.9133680555556,29.9
4.26666666666667,11.7364903839653,24.9791790397751,0.00398453155931626,0.000459974446193696,5,13.9133680555556,29.9
4.3,11.7364903839653,24.9791790397751,0.00428083962171607,0.000296308062399812,5,13.9133680555556,29.9
4.33333333333333,11.736488802746,24.9793865635448,0.00893388162046242,0.00465304199874635,5,13.9133680555556,29.9
4.36666666666667,11.736486243702,24.979722434308,0.0131853049409048,0.00425142332044241,5,13.9133680555556,29.9
4.4,11.7364825075634,24.9802126832225,0.017517754210037,0.00433244926913216,5,13.9133680555556,29.9
4.43333333333333,11.7364776172661,24.9808541095331,0.0218198221411744,0.00430206793113743,5,13.9133680555556,29.9
4.46666666666667,11.7364715986169,24.9816430502793,0.0260534706589353,0.00423364851776091,5,13.9133680555556,29.9
4.5,11.7364646974779,24.9825468659023,0.028489691170041,0.00243622051110563,5,13.9133680555556,29.9
4.53333333333333,11.7364571584481,24.9835330022793,0.0308392841764822,0.00234959300644121,5,13.9133680555556,29.9
4.56666666666667,11.7364487859745,24.9846266129145,0.034832450465696,0.00399316628921381,5,13.9133680555556,29.9
4.6,11.7364389438903,24.9859105938511,0.0422030998681678,0.00737064940247185,5,13.9133680555556,29.9
4.63333333333333,11.7364267790489,24.9874961468322,0.0529068363396037,0.0107037364714359,5,13.9133680555556,29.9
4.66666666666667,11.7364107892422,24.9895793400751,0.0720559274923522,0.0191490911527485,4,13.9133680555556,29.9
4.7,11.7363883939062,24.99249711353,0.102966149984738,0.0309102224923857,4,13.9133680555556,29.9
4.73333333333333,11.7363568221867,24.9966099669363,0.143729218191166,0.0407630682064278,4,13.9133680555556,29.9
4.76666666666667,11.7363139913067,25.0021854381356,0.19068388683688,0.0469546686457147,4,13.9133680555556,29.9
4.8,11.7362589379801,25.0093399302843,0.23843499150784,0.04775110467096,4,13.9133680555556,29.9
4.83333333333333,11.7361915795574,25.0180686260252,0.285130611859238,0.0466956203513977,4,13.9133680555556,29.9
4.86666666666667,11.7361120130643,25.0283365019803,0.330790410728116,0.0456597988688782,4,13.9133680555556,29.9
4.9,11.7360202741286,25.0401094104039,0.375440216994172,0.0446498062660555,4,13.9133680555556,29.9
4.93333333333333,11.7359163361888,25.0533540077063,0.419102063904791,0.043661846910619,4,13.9133680555556,29.9
4.96666666666667,11.735800112992,25.0680376612088,0.461795318114207,0.0426932542094163,4,13.9133680555556,29.9
5,11.7356714650933,25.0841282609806,0.503525549441344,0.0417302313271368,4,13.9133680555556,29.9
5.03333333333333,11.7355302137594,25.1015934920343,0.544278602173839,0.0407530527324947,4,13.9133680555556,29.9
5.06666666666667,11.7353761534564,25.1204007039502,0.584049120336687,0.0397705181628477,4,13.9133680555556,29.9
5.1,11.7352090637435,25.1405172208358,0.622840350612588,0.038791230275901,4,13.9133680555556,29.9
5.13333333333333,11.7350287239132,25.1619105743692,0.660661701694801,0.037821351082213,4,13.9133680555556,29.9
5.16666666666667,11.7348349294653,25.1845486773559,0.697528745004461,0.0368670433096601,4,13.9133680555556,29.9
5.2,11.7346275060565,25.2084003858009,0.733488789394029,0.0359600443895686,4,13.9133680555556,29.9
5.23333333333333,11.7344063192394,25.2334365305214,0.768605312207378,0.0351165228133485,4,13.9133680555556,29.9
5.26666666666667,11.7341712908383,25.2596298619108,0.802930217447896,0.0343249052405187,4,13.9133680555556,29.9
5.3,11.7339224150263,25.2869546884104,0.836505680132899,0.0335754626850029,4,13.9133680555556,29.9
5.33333333333333,11.7336597702301,25.3153866018516,0.869366592777909,0.0328609126450092,4,13.9133680555556,29.9
5.36666666666667,11.7333835262942,25.3449022717242,0.901542407753224,0.0321758149753154,4,13.9133680555556,29.9
5.4,11.7330939472291,25.3754792007245,0.933047661520443,0.0315052537672191,4,13.9133680555556,29.9
5.43333333333333,11.7327913957053,25.4070946228189,0.963852734563596,0.0308050730431525,4,13.9133680555556,29.9
5.46666666666667,11.7324763301612,25.4397247284913,0.993931534253058,0.0300787996894624,4,13.9133680555556,29.9
5.5,11.7321492878036,25.4733451074025,1.02327257950532,0.0293410452522616,4,13.9133680555556,29.9
5.53333333333333,11.7318108640688,25.5079311158688,1.05187293005765,0.02860035055233,4,13.9133680555556,29.9
5.56666666666667,11.7314616895165,25.5434581476044,1.07973781451258,0.0278648844549292,4,13.9133680555556,29.9
5.6,11.731102404661,25.5799018752088,1.1068786237166,0.0271408092040215,4,13.9133680555556,29.9
5.63333333333333,11.7307336343091,25.6172384187238,1.1333107769768,0.0264321532602001,4,13.9133680555556,29.9
5.66666666666667,11.7303559619835,25.6554445363717,1.15906107368768,0.0257502967108796,4,13.9133680555556,29.9
5.7,11.7299699024522,25.6944982503847,1.18417523998258,0.0251141662949028,4,13.9133680555556,29.9
5.73333333333333,11.7295758805603,25.7343790538527,1.20869411049911,0.0245188705165256,4,13.9133680555556,29.9
5.76666666666667,11.7291742177455,25.7750676863379,1.2326519725527,0.0239578620535901,4,13.9133680555556,29.9
5.8,11.7287651235274,25.8165459432771,1.25607808934266,0.0234261167899654,4,13.9133680555556,29.9
5.83333333333333,11.728348692633,25.858796528951,1.27899783975438,0.0229197504117202,4,13.9133680555556,29.9
5.86666666666667,11.7279249082317,25.9018029419637,1.30143357131711,0.0224357315627253,4,13.9133680555556,29.9
5.9,11.7274936510959,25.9455494118753,1.32340870323799,0.0219751319208843,4,13.9133680555556,29.9
5.93333333333333,11.7270547074443,25.9900216927375,1.34501181126381,0.0216031080258159,4,13.9133680555556,29.9
5.96666666666667,11.7266077565328,26.0352108234381,1.36647095918017,0.0214591479163648,4,13.9133680555556,29.9
6,11.7261523562741,26.0811174342822,1.38812830345688,0.0216573442767043,4,13.9133680555556,29.9
6.03333333333333,11.7256879378097,26.1277550558757,1.41041237660094,0.0222840731440566,4,13.9133680555556,29.9
6.06666666666667,11.725213804677,26.1751527176581,1.43382255312051,0.0234101765195771,4,13.9133680555556,29.9
6.1,11.7247291328244,26.223357058963,1.45891339486139,0.0250908417408748,4,13.9133680555556,29.9
6.13333333333333,11.7242329689323,26.272434058098,1.48629170224937,0.0273783073879836,4,13.9133680555556,29.9
