Time,x_ego,y_ego,velocity,acceleration,action,x_ped,y_ped
0,11.8,15.9,5,0,1,15.5,29.9
0.0333333333333333,11.800002440957,16.0666076888399,4.99642261869917,-0.00357738130082641,1,15.3694444444444,29.9
0.0666666666666667,11.8000181003957,16.2330926530235,4.9926476197977,-0.00377499890147615,1,15.2444444444444,29.9
0.1,11.8000562905291,16.399449296065,4.9887314942227,-0.00391612557499599,1,15.125,29.9
0.133333333333333,11.8001223766037,16.5656736205434,4.98471470526732,-0.00401678895537838,1,15.0111111111111,29.9
0.166666666666667,11.8002184592561,16.7317627746758,4.980626213208,-0.00408849205932604,1,14.9027777777778,29.9
0.2,11.8003442120233,16.8977147278113,4.97648674410129,-0.00413946910670582,1,14.8,29.9
0.233333333333333,11.8004976988795,17.0635280382739,4.97231114116276,-0.00417560293852937,1,14.7027777777778,29.9
0.266666666666667,11.8006760671447,17.2292016871781,4.96811004663944,-0.00420109452331996,1,14.6111111111111,29.9
0.3,11.8008760755172,17.3947349593028,4.96389109963816,-0.00421894700127989,1,14.525,29.9
0.333333333333333,11.8010944641657,17.5601273575424,4.95965978817005,-0.0042313114681134,1,14.4444444444444,29.9
0.366666666666667,11.8013281995392,17.7253785413653,4.95542005636474,-0.00423973180530535,1,14.3694444444444,29.9
0.4,11.8015746326471,17.8904882824896,4.95117473875211,-0.00424531761263047,1,14.3,29.9
0.433333333333333,11.8018316019305,18.0554564329483,4.94692587191674,-0.00424886683536929,1,14.2361111111111,29.9
0.466666666666667,11.8020974980029,18.2202829020904,4.94267491857417,-0.00425095334257364,1,14.1777777777778,29.9
0.5,11.8023712943007,18.3849676400467,4.93842292870842,-0.00425198986575026,1,14.125,29.9
0.533333333333333,11.8026525396536,18.5495106258746,4.9341706553652,-0.00425227334322109,1,14.0777777777778,29.9
0.566666666666667,11.8029413076451,18.7139118590982,4.92991863782561,-0.00425201753959303,1,14.0361111111111,29.9
0.6,11.8032380703485,18.8781422879942,4.92392335205398,-0.00599528577162811,1,14,29.9
0.633333333333333,11.8035435614659,19.0421438107009,4.9161853435199,-0.00773800853407369,1,13.9694444444444,29.9
0.666666666666667,11.8038585797693,19.2058009388318,4.90326096266583,-0.0129243808540753,1,13.9444444444444,29.9
0.7,11.8041839363525,19.3690272794719,4.89033946612272,-0.0129214965431128,1,13.925,29.9
0.733333333333333,11.8045204017262,19.5318229360089,4.87742139859848,-0.0129180675242351,1,13.9111111111111,29.9
0.766666666666667,11.80486851665,19.6941880275214,4.86450714835184,-0.0129142502466406,1,13.9027777777778,29.9
0.8,11.8052285535537,19.8561226844688,4.8515969913188,-0.0129101570330397,1,13.9,29.9
0.833333333333333,11.8056005247136,20.0176270455729,4.83869112268201,-0.0129058686367873,1,13.9,29.9
0.866666666666667,11.8059842285909,20.1787012555333,4.8257896797426,-0.012901442939409,1,13.9,29.9
0.9,11.8063793200518,20.3393454633305,4.81289275869776,-0.0128969210448471,1,13.9,29.9
0.933333333333333,11.8067853880134,20.4995598209547,4.80000042699328,-0.0128923317044718,1,13.9,29.9
0.966666666666667,11.8072020254548,20.6593444824554,4.78711273231171,-0.0128876946815764,1,13.9,29.9
1,11.8076288809181,20.8186996032413,4.77422970891699,-0.012883023394723,1,13.9,29.9
1.03333333333333,11.8080656284956,20.9775966372026,4.75962926990874,-0.0146004390082464,1,13.9,29.9
1.06666666666667,11.808511964843,21.1359779782178,4.74328989926833,-0.0163393706404129,1,13.9,29.9
1.1,11.8089676469099,21.2937860311869,4.72523378116757,-0.0180561181007564,3,13.9,29.9
1.13333333333333,11.8094324655285,21.4509635781967,4.70546136837551,-0.0197724127920607,3,13.9,29.9
1.16666666666667,11.8099060833108,21.6073956491463,4.68050713665831,-0.0249542317171993,3,13.9,29.9
1.2,11.8103877927706,21.7628230630677,4.64518400760238,-0.035323129055933,3,13.9,29.9
1.23333333333333,11.8108768088345,21.9169863306176,4.60466040170314,-0.0405236058992333,3,13.9,29.9
1.26666666666667,11.8113725341158,22.0697415611639,4.56070380825386,-0.0439565934492885,3,13.9,29.9
1.3,11.8118745143041,22.2210317523973,4.51675999740351,-0.04394381085035,3,13.9,29.9
1.33333333333333,11.8123823164798,22.3708282806787,4.4710859894636,-0.0456740079399065,3,13.9,29.9
1.36666666666667,11.8128954823765,22.5191025536759,4.42542661574606,-0.0456593737175375,3,13.9,29.9
1.4,11.8134136245152,22.6658550686612,4.37978243284224,-0.0456441829038203,3,13.9,29.9
1.43333333333333,11.8139363662604,22.8110863387694,4.33415381614718,-0.0456286166950655,3,13.9,29.9
1.46666666666667,11.8144632675395,22.9547681857576,4.28681889568689,-0.0473349204602851,3,13.9,29.9
1.5,11.8149939917038,23.0969011461823,4.24122231857922,-0.0455965771076716,3,13.9,29.9
1.53333333333333,11.8155282188194,23.2374857620915,4.19391980429562,-0.0473025142835972,3,13.9,29.9
1.56666666666667,11.8160655574919,23.3764938788938,4.14663376401234,-0.0472860402832769,3,13.9,29.9
1.6,11.816605527468,23.5138682827397,4.09589829718119,-0.0507354668311528,3,13.9,29.9
1.63333333333333,11.8171474582459,23.6494943680704,4.04173580248779,-0.054162494693399,3,13.9,29.9
1.66666666666667,11.8176904645855,23.7831997834257,3.98065921006361,-0.0610765924241847,3,13.9,29.9
1.7,11.8182332336813,23.9146966776555,3.90922565048282,-0.07143355958079,3,13.9,29.9
1.73333333333333,11.8187745782284,24.0437550273717,3.83434754187264,-0.0748781086101782,3,13.9,29.9
1.76666666666667,11.8193135323897,24.1702313390085,3.75430431259192,-0.0800432292807227,3,13.9,29.9
1.8,11.8198488691004,24.2939247687095,3.66737549645228,-0.0869288161396398,3,13.9,29.9
1.83333333333333,11.8203790896192,24.4145767648614,3.57181907073095,-0.0955564257213322,3,13.8991319444444,29.9
1.86666666666667,11.8209027264448,24.5319575481782,3.47110333405156,-0.100715736679381,3,13.8965277777778,29.9
1.9,11.8214180275188,24.6457796397243,3.35829812921173,-0.112805204839835,3,13.8921875,29.9
1.93333333333333,11.8219225199795,24.7555826996186,3.22996198746191,-0.128336141749821,3,13.8861111111111,29.9
1.96666666666667,11.8224137351628,24.860935559304,3.09128667748259,-0.138675309979319,3,13.8782986111111,29.9
2,11.8228896454689,24.9615514000571,2.94574157912226,-0.145545098360333,3,13.86875,29.9
2.03333333333333,11.8233488092799,25.057316443409,2.80023983341426,-0.145501745707997,3,13.8574652777778,29.9
2.06666666666667,11.823790193583,25.1482321557399,2.6547830602874,-0.145456773126859,3,13.8444444444444,29.9
2.1,11.8242124251031,25.2342135782977,2.50418401461323,-0.150599045674173,3,13.8296875,29.9
2.13333333333333,11.8246139267501,25.3151180251263,2.35016594220205,-0.154018072411182,3,13.8131944444444,29.9
2.16666666666667,11.8249935366325,25.3908894149016,2.19621532060369,-0.153950621598361,3,13.7949652777778,29.9
2.2,11.825350355387,25.4615091902509,2.04132146008594,-0.154893860517749,3,13.775,29.9
2.23333333333333,11.8256837778795,25.5270004362666,1.88866537572093,-0.152656084365004,3,13.7532986111111,29.9
2.26666666666667,11.8259935791115,25.5874485093137,1.73876106923792,-0.14990430648301,3,13.7298611111111,29.9
2.3,11.8262798067755,25.6429758229875,1.59341431656221,-0.145346752675716,3,13.7046875,29.9
2.33333333333333,11.826542618636,25.6937057608623,1.45091111210657,-0.142503204455633,3,13.6777777777778,29.9
2.36666666666667,11.8267821409012,25.7397328421121,1.31123084366755,-0.139680268439028,3,13.6491319444444,29.9
2.4,11.8269985686304,25.7811507553361,1.1743425872723,-0.136888256395247,3,13.61875,29.9
2.43333333333333,11.8271921467158,25.8180516505318,1.04020349991543,-0.134139087356869,3,13.5866319444444,29.9
2.46666666666667,11.8273631656265,25.8505283135064,0.908911428432541,-0.131292071482889,3,13.5527777777778,29.9
2.5,11.8275119659837,25.8786777137132,0.780566808766909,-0.128344619665632,3,13.5171875,29.9
2.53333333333333,11.8276389113244,25.9025965835263,0.655060918050714,-0.125505890716195,3,13.4798611111111,29.9
2.56666666666667,11.8277443656254,25.9223776429206,0.532316779975644,-0.122744138075071,3,13.4407986111111,29.9
2.6,11.827828706329,25.9381136059688,0.412387940177417,-0.119928839798226,3,13.4,29.9
2.63333333333333,11.8278923259162,25.9498982655662,0.295267494710944,-0.117120445466474,3,13.3574652777778,29.9
2.66666666666667,11.8279356159291,25.9578234056027,0.180881681278614,-0.11438581343233,3,13.3131944444444,29.9
2.7,11.8279589681458,25.9619795727017,0.0694105642456891,-0.111471117032925,3,13.2671875,29.9
2.73333333333333,11.827964396734,25.9628254166647,0.0126445765510367,-0.0567659876946524,3,13.2194444444444,29.9
2.76666666666667,11.8279582010724,25.9617933715516,0.0452746842173452,0.0326301076663085,4,13.1699652777778,29.9
2.8,11.8279468051245,25.960298706933,0.00622462539588101,-0.0390500588214642,3,13.11875,29.9
2.83333333333333,11.8279468051245,25.960298706933,0.00645012658171033,0.000225501185829317,5,13.0657986111111,29.9
2.86666666666667,11.8279468051245,25.960298706933,0.00689856020277793,0.000448433621067597,5,13.0111111111111,29.9
2.9,11.8279468051245,25.960298706933,0.00749376225969824,0.000595202056920317,5,12.9546875,29.9
2.93333333333333,11.8279468051245,25.960298706933,0.00813099070578384,0.000637228446085596,5,12.8965277777778,29.9
2.96666666666667,11.8279468051245,25.960298706933,0.00869522973059328,0.00056423902480944,5,12.8366319444444,29.9
3,11.8279468051245,25.960298706933,0.00907734600301158,0.000382116272418303,5,12.775,29.9
3.03333333333333,11.8279468051245,25.960298706933,0.00918702872960273,0.000109682726591143,5,12.7116319444444,29.9
3.06666666666667,11.8279468051245,25.960298706933,0.00896189512485692,-0.000225133604745801,5,12.6465277777778,29.9
3.1,11.8279468051245,25.960298706933,0.00837256372231808,-0.000589331402538841,5,12.5796875,29.9
3.13333333333333,11.8279468051245,25.960298706933,0.00742386317530017,-0.000948700547017911,5,12.5111111111111,29.9
3.16666666666667,11.8279468051245,25.960298706933,0.0061526357081608,-0.00127122746713937,5,12.4407986111111,29.9
3.2,11.8279468051245,25.960298706933,0.00462280252903512,-0.00152983317912568,5,12.36875,29.9
3.23333333333333,11.8279468051245,25.960298706933,0.002918481354877,-0.00170432117415812,5,12.2949652777778,29.9
3.26666666666667,11.8279468051245,25.960298706933,0.00113598833888649,-0.00178249301599051,5,12.2194444444444,29.9
3.3,11.8279468051245,25.960298706933,0.000624472122748908,-0.000511516216137579,5,12.1421875,29.9
3.33333333333333,11.8279468051245,25.960298706933,0.00226671264864721,0.0016422405258983,5,12.0631944444444,29.9
3.36666666666667,11.8279468051245,25.960298706933,0.00370547476546859,0.00143876211682138,5,11.9824652777778,29.9
3.4,11.8279468051245,25.960298706933,0.00487191381398752,0.00116643904851892,5,11.9,29.9
3.43333333333333,11.8279468051245,25.960298706933,0.00571738882019708,0.000845475006209561,5,11.8157986111111,29.9
3.46666666666667,11.8279468051245,25.960298706933,0.00621545182836007,0.00049806300816299,5,11.7298611111111,29.9
3.5,11.8279468051245,25.960298706933,0.00636207924547115,0.000146627417111079,5,11.6421875,29.9
3.53333333333333,11.8279468051245,25.960298706933,0.00617431262604501,-0.000187766619426132,5,11.5527777777778,29.9
3.56666666666667,11.8279468051245,25.960298706933,0.00568757231311167,-0.000486740312933345,5,11.4616319444444,29.9
3.6,11.8279468051245,25.960298706933,0.00495197163396457,-0.000735600679147103,5,11.36875,29.9
3.63333333333333,11.8279468051245,25.960298706933,0.00402799177611479,-0.000923979857849775,5,11.2741319444444,29.9
3.66666666666667,11.8279468051245,25.960298706933,0.00298188015616066,-0.00104611161995413,5,11.1777777777778,29.9
3.7,11.8279468051245,25.960298706933,0.00188111193704832,-0.00110076821911234,5,11.0796875,29.9
3.73333333333333,11.8279468051245,25.960298706933,0.000790210485869184,-0.00109090145117913,5,10.9798611111111,29.9
3.76666666666667,11.8279468051245,25.960298706933,0.00023283616268653,-0.000557374323182654,5,10.8782986111111,29.9
3.8,11.8279468051245,25.960298706933,0.00113939332187383,0.000906557159187297,5,10.775,29.9
3.83333333333333,11.8279468051245,25.960298706933,0.00189213320773737,0.000752739885863543,5,10.6699652777778,29.9
3.86666666666667,11.8279468051245,25.960298706933,0.00246609350184612,0.000573960294108748,5,10.5631944444444,29.9
3.9,11.8279468051245,25.960298706933,0.00284887230677699,0.000382778804930869,5,10.4546875,29.9
3.93333333333333,11.8279468051245,25.960298706933,0.00304004301435401,0.000191170707577019,5,10.3444444444444,29.9
3.96666666666667,11.8279468051245,25.960298706933,0.00304991277979407,9.86976544006249e-06,5,10.2324652777778,29.9
4,11.8279468051245,25.960298706933,0.00289777542116964,-0.000152137358624431,5,10.11875,29.9
4.03333333333333,11.8279468051245,25.960298706933,0.00260982357057661,-0.000287951850593029,5,10.0032986111111,29.9
4.06666666666667,11.8279468051245,25.960298706933,0.00221688659262522,-0.000392936977951391,5,9.88611111111111,29.9
4.1,11.8279468051245,25.960298706933,0.00175215165662036,-0.000464734936004859,5,9.7671875,29.9
4.13333333333333,11.8279468051245,25.960298706933,0.00124900740146892,-0.000503144255151441,5,9.64652777777778,29.9
4.16666666666667,11.8279468051245,25.960298706933,0.000739125167451936,-0.000509882234016981,5,9.52413194444444,29.9
4.2,11.8279468051245,25.960298706933,0.000250864195500458,-0.000488260971951478,5,9.4,29.9
4.23333333333333,11.8279468051245,25.960298706933,0.000191943141151458,-5.8921054349e-05,5,9.27413194444444,29.9
4.26666666666667,11.8279468051245,25.960298706933,0.00057079996485772,0.000378856823706263,5,9.14652777777778,29.9
4.3,11.8279468051245,25.960298706933,0.000872949023374348,0.000302149058516628,5,9.0171875,29.9
4.33333333333333,11.8279468051245,25.960298706933,0.00109139806760145,0.000218449044227103,5,8.88611111111111,29.9
4.36666666666667,11.8279468051245,25.960298706933,0.00122461166418293,0.000133213596581482,5,8.75329861111111,29.9
4.4,11.8279468051245,25.960298706933,0.00127592882211977,5.13171579368352e-05,5,8.61875,29.9
4.43333333333333,11.8279468051245,25.960298706933,0.00115416214859754,-0.000121766673522228,5,8.48246527777778,29.9
4.46666666666667,11.8279477168299,25.9605062356568,0.00777769729275048,0.00662353514415294,5,8.34444444444444,29.9
4.5,11.8279490663957,25.9608134362043,0.0106965410086586,0.00291884371590812,5,8.2046875,29.9
4.53333333333333,11.827950969448,25.9612466028818,0.0152889829069494,0.00459244189829077,5,8.06319444444444,29.9
4.56666666666667,11.8279535400138,25.9618316539527,0.019800253376917,0.0045112704699676,5,7.91996527777778,29.9
4.6,11.8279570171932,25.9626229589626,0.0276667433322156,0.00786648995529865,5,7.775,29.9
4.63333333333333,11.8279616361604,25.9636739625131,0.0353846865416255,0.00771794320940988,5,7.62829861111111,29.9
4.66666666666667,11.8279676273064,25.9650369737173,0.0463849057611408,0.0110002192195153,5,7.47986111111111,29.9
4.7,11.8279753416068,25.9667916818859,0.0588782881493487,0.0124933823882078,5,7.3296875,29.9
4.73333333333333,11.8279851232651,25.9690161317885,0.0745574356099737,0.0156791474606251,5,7.17777777777778,29.9
4.76666666666667,11.8279974364199,25.9718155191616,0.0933595030227218,0.018802067412748,4,7.02413194444444,29.9
4.8,11.8280133676171,25.9754364926863,0.123829410047045,0.0304699070243235,4,6.86875,29.9
4.83333333333333,11.8280343675652,25.980208198002,0.162372252992553,0.0385428429455073,4,6.71163194444444,29.9
4.86666666666667,11.8280617387028,25.9864253409126,0.210521002968478,0.0481487499759251,4,6.55277777777778,29.9
4.9,11.8280961268662,25.9942320922178,0.257724739966212,0.0472037369977338,4,6.3921875,29.9
4.93333333333333,11.8281374047466,26.0035952176093,0.303908539508935,0.0461837995427236,4,6.22986111111111,29.9
4.96666666666667,11.8281854499969,26.0144810135666,0.349090839283275,0.0451822997743402,4,6.06579861111111,29.9
5,11.828240150386,26.0268563878065,0.393289105759845,0.0441982664765698,4,5.9,29.9
5.03333333333333,11.8283014036362,26.0406888196918,0.436519723276389,0.043230617516544,4,5.9,29.9
5.06666666666667,11.8283691168448,26.0559463234926,0.478796699872651,0.0422769765962621,4,5.9,29.9
5.1,11.8284432039706,26.0725970713996,0.52011210051601,0.041315400643359,4,5.9,29.9
5.13333333333333,11.8285235818661,26.0906087847767,0.56045290321056,0.0403408026945499,4,5.9,29.9
5.16666666666667,11.828610169423,26.1099489253263,0.599816400110186,0.039363496899626,4,5.9,29.9
5.2,11.8287028868421,26.1305849923116,0.638207546949563,0.0383911468393769,4,5.9,29.9
5.23333333333333,11.8288016542902,26.152484736478,0.675636723479108,0.0374291765295452,4,5.9,29.9
5.26666666666667,11.8289063904679,26.1756163850236,0.712126980418855,0.0364902569397468,4,5.9,29.9
5.3,11.8290170142181,26.1999495585109,0.747738078238073,0.0356110978192182,4,5.9,29.9
5.33333333333333,11.8291334452116,26.2254559456049,0.782528622494946,0.0347905442568723,4,5.9,29.9
5.36666666666667,11.8292556005672,26.2521089901549,0.816545843936765,0.0340172214418192,4,5.9,29.9
5.4,11.8293833918227,26.2798835661762,0.849828494827645,0.0332826508908802,4,5.9,29.9
5.43333333333333,11.8295167227783,26.308755735338,0.882408999538843,0.0325805047111983,4,5.9,29.9
5.46666666666667,11.8296554881833,26.3387025606041,0.914314199977095,0.0319052004382512,4,5.9,29.9
5.5,11.829799571794,26.3697016309012,0.945540613893435,0.0312264139163405,4,5.9,29.9
5.53333333333333,11.8299488414055,26.4017297512455,0.976054296226873,0.0305136823334377,4,5.9,29.9
5.56666666666667,11.8301031497308,26.4347628127599,1.00583600586576,0.029781709638885,4,5.9,29.9
5.6,11.8302623385937,26.4687762776724,1.03487806350748,0.029042057641723,4,5.9,29.9
5.63333333333333,11.8304262428351,26.5037454838112,1.06318089249925,0.0283028289917711,4,5.9,29.9
5.66666666666667,11.8305946944427,26.539645910883,1.09075245077214,0.0275715582728839,4,5.9,29.9
5.7,11.8307675266842,26.5764533929485,1.11760592921992,0.0268534784477839,4,5.9,29.9
5.73333333333333,11.8309445780251,26.6141442665085,1.14375906876074,0.026153139540825,4,5.9,29.9
5.76666666666667,11.8311256968472,26.652695723203,1.16924834173066,0.0254892729699145,4,5.9,29.9
5.8,11.8313107469119,26.6920863943563,1.19411870906822,0.0248703673375561,4,5.9,29.9
5.83333333333333,11.8314996095123,26.7322962964942,1.21840816015198,0.0242894510837663,4,5.9,29.9
5.86666666666667,11.8316921842641,26.7733066112394,1.24214881297549,0.0237406528235071,4,5.9,29.9
5.9,11.8318883893642,26.8150995136889,1.26536826730131,0.0232194543258213,4,5.9,29.9
5.93333333333333,11.8320881611924,26.857658039508,1.28809061504846,0.0227223477471472,4,5.9,29.9
5.96666666666667,11.832291536497,26.9009659805576,1.31033719658259,0.0222465815341357,4,5.9,29.9
6,11.8324988894809,26.9450078014728,1.33212716331483,0.0217899667322417,4,5.9,29.9
6.03333333333333,11.8327106508423,26.9897691122388,1.35353807592722,0.0214109126123887,4,5.9,29.9
6.06666666666667,11.8329272200635,27.0352418173453,1.37488128523993,0.0213432093127102,4,5.9,29.9
6.1,11.8331489772989,27.0814313723836,1.39663779836584,0.021756513125911,4,5.9,29.9
6.13333333333333,11.8333762860799,27.1283605085349,1.41934775093778,0.0227099525719345,4,5.9,29.9
6.16666666666667,11.833609489366,27.1760698800086,1.44353598386391,0.0241882329261267,4,5.9,29.9
6.2,11.8338489035376,27.2246166815636,1.46966630059853,0.0261303167346203,4,5.9,29.9
6.23333333333333,11.8340948150662,27.2740724096476,1.49813285200498,0.0284665514064537,4,5.9,29.9
6.26666666666667,11.8343474829987,27.3245206450224,1.52926917347951,0.0311363214745277,4,5.9,29.9
6.3,11.8346071476479,27.3760551649755,1.56335277628182,0.0340836028023108,4,5.9,29.9
6.33333333333333,11.8348740433768,27.4287781660149,1.60061669336147,0.0372639170796474,4,5.9,29.9
6.36666666666667,11.8351484184599,27.4827995073248,1.64129700689605,0.0406803135345828,4,5.9,29.9
6.4,11.8354305640308,27.5382376675238,1.68568219663222,0.0443851897361724,4,5.9,29.9
6.43333333333333,11.8357208497501,27.5952221522183,1.7341481379628,0.0484659413305837,4,5.9,29.9
6.46666666666667,11.8360197628052,27.653896875176,1.78719453558955,0.0530463976267468,4,5.9,29.9
6.5,11.8363279467649,27.7144240234678,1.84537414508462,0.0581796094950733,4,5.9,29.9
6.53333333333333,11.8366462049475,27.7769811059052,1.90902917350695,0.0636550284223261,4,5.9,29.9
