Time,x_ego,y_ego,velocity,acceleration,action,x_ped,y_ped
0,11.8,15.9,7,0,1,15.5,29.9
0.0333333333333333,11.8,16.1332703793943,6.99615577953002,-0.00384422046998356,1,15.3694444444444,29.9
0.0666666666666667,11.8,16.3664065988113,6.99196947109348,-0.00418630843653833,1,15.2444444444444,29.9
0.1,11.8,16.5994007552791,6.98769498718995,-0.00427448390352669,1,15.125,29.9
0.133333333333333,11.8,16.8322537852842,6.9834976545359,-0.00419733265404787,1,15.0111111111111,29.9
0.166666666666667,11.8,17.0649678802301,6.97935585456763,-0.00414179996826913,1,14.9027777777778,29.9
0.2,11.8,17.2975446186632,6.97525409491249,-0.00410175965514537,1,14.8,29.9
0.233333333333333,11.8,17.5299851399444,6.97118127319767,-0.00407282171482137,1,14.7027777777778,29.9
0.266666666666667,11.8,17.7622902687052,6.96712943294736,-0.00405184025031069,1,14.6111111111111,29.9
0.3,11.8,17.9944606040335,6.96309287213007,-0.00403656081728965,1,14.525,29.9
0.333333333333333,11.8,18.2264965833863,6.95906750439986,-0.00402536773020401,1,14.4444444444444,29.9
0.366666666666667,11.8,18.4583985283897,6.95505040137947,-0.00401710302039238,1,14.3694444444444,29.9
0.4,11.8,18.6901666776599,6.95103946463339,-0.00401093674607722,1,14.3,29.9
0.433333333333333,11.8,18.9218012103233,6.94703319054231,-0.00400627409108711,1,14.2361111111111,29.9
0.466666666666667,11.8,19.1533022628712,6.94303050173604,-0.00400268880626342,1,14.1777777777778,29.9
0.5,11.8,19.3846699412377,6.93903062623031,-0.00399987550573222,1,14.125,29.9
0.533333333333333,11.8,19.6159043294559,6.93503301077307,-0.00399761545723631,1,14.0777777777778,29.9
0.566666666666667,11.8,19.8470054958598,6.93103725873891,-0.00399575203416092,1,14.0361111111111,29.9
0.6,11.8,20.0779734975296,6.92704308564579,-0.003994173093127,1,14,29.9
0.633333333333333,11.8,20.3088083834769,6.92305028732138,-0.00399279832440236,1,13.9694444444444,29.9
0.666666666666667,11.8,20.539510196927,6.91905871714157,-0.00399157017981544,1,13.9444444444444,29.9
0.7,11.7999983709458,20.7700786136342,6.91504647233047,-0.0040122448110953,1,13.925,29.9
0.733333333333333,11.7999881682826,21.0004268362634,6.90584718396047,-0.00919928837000494,1,13.9111111111111,29.9
0.766666666666667,11.7999638525948,21.2304106751929,6.89318360050506,-0.0126635834554039,1,13.9027777777778,29.9
0.8,11.7999225484239,21.4599146614284,6.87705626024102,-0.0161273402640436,1,13.9,29.9
0.833333333333333,11.7998632661524,21.6888524101567,6.85920965056524,-0.017846609675785,1,13.9,29.9
0.866666666666667,11.7997861985059,21.9171666175654,6.83964416594705,-0.0195654846181865,3,13.9,29.9
0.9,11.7996921941558,22.1446844572317,6.81142818347677,-0.0282159824702841,3,13.9,29.9
0.933333333333333,11.7995824165351,22.3710888968368,6.77284089579772,-0.0385872876790501,3,13.9,29.9
0.966666666666667,11.7994581234492,22.596120722485,6.72907208460375,-0.0437688111939609,3,13.9,29.9
1,11.7993205730472,22.8195781684981,6.67837897858999,-0.0506931060137656,3,13.9,29.9
1.03333333333333,11.7991709985964,23.0412595110052,6.62250681469977,-0.0558721638902195,3,13.9,29.9
1.06666666666667,11.7990105991326,23.2609634291514,6.55973460598708,-0.062772208712687,3,13.9,29.9
1.1,11.7988405235532,23.4784886433134,6.49178575653388,-0.0679488494532059,3,13.9,29.9
1.13333333333333,11.7986617923751,23.6937490854061,6.42384945706047,-0.0679362994734101,3,13.9,29.9
1.16666666666667,11.7984752638976,23.9067451796719,6.35592607001815,-0.0679233870423204,3,13.9,29.9
1.2,11.7982816358281,24.1174773614521,6.2880158095282,-0.0679102604899482,3,13.9,29.9
1.23333333333333,11.798081479536,24.3258596029212,6.2149306713959,-0.0730851381323028,3,13.9,29.9
1.26666666666667,11.7978752533131,24.5317194236224,6.13667136592758,-0.0782593054683156,3,13.9,29.9
1.3,11.7976632436587,24.7349417732029,6.05668289886478,-0.0799884670627948,3,13.9,29.9
1.33333333333333,11.7974455822961,24.9354980899043,5.97670960057774,-0.0799732982870403,3,13.9,29.9
1.36666666666667,11.7972223534865,25.1333601837058,5.89502953917109,-0.0816800614066544,3,13.9,29.9
1.4,11.7969937156628,25.3284134021685,5.80817701682315,-0.0868525223479404,3,13.9,29.9
1.43333333333333,11.7967600323387,25.5203698059774,5.70922069513657,-0.0989563216865816,3,13.9,29.9
1.46666666666667,11.7965218207268,25.7088840907561,5.60164995843917,-0.107570736697399,3,13.9,29.9
1.5,11.7962796993036,25.8936396993672,5.48370037909961,-0.117949579339563,3,13.9,29.9
1.53333333333333,11.7960343817232,26.0743488242402,5.35886128480217,-0.124839094297433,3,13.9,29.9
1.56666666666667,11.7957866009418,26.2508105344963,5.2288559324529,-0.130005352349269,3,13.9,29.9
1.6,11.7955370426793,26.4229391063414,5.09887339264467,-0.129982539808235,3,13.9,29.9
1.63333333333333,11.7952862706342,26.5907930730889,4.97238000170175,-0.126493390942914,3,13.9,29.9
1.66666666666667,11.7950348440344,26.7544309678233,4.84590948572255,-0.126470515979209,3,13.9,29.9
1.7,11.7947832912344,26.9139109575296,4.72290605578198,-0.12300342994057,3,13.9,29.9
1.73333333333333,11.7945320265731,27.0693489682682,4.60339105889272,-0.119514996889254,3,13.9,29.9
1.76666666666667,11.7942813725828,27.2208889619454,4.48899751345412,-0.114393545438606,3,13.9,29.9
1.8,11.79403156014,27.3687001991482,4.37967460331514,-0.109322910138978,3,13.9,29.9
1.83333333333333,11.7937826844875,27.5130102515331,4.27893259966564,-0.100742003649493,3,13.8991319444444,29.9
1.86666666666667,11.7935346643684,27.6541343959801,4.18852428904277,-0.0904083106228741,3,13.8965277777778,29.9
1.9,11.7932871136343,27.7925616989803,4.11712475449809,-0.0713995345446756,3,13.8921875,29.9
1.93333333333333,11.7930392393638,27.9290124843056,4.06993491084466,-0.0471898436534364,3,13.8861111111111,29.9
1.96666666666667,11.7927900581902,28.0642651536745,4.0452392343214,-0.0246956765232529,3,13.8782986111111,29.9
2,11.7925386766879,28.1989540123052,4.03610828223712,-0.00913095208428061,1,13.86875,29.9
2.03333333333333,11.7922845179575,28.3334252965943,4.03218815951362,-0.00392012272350417,1,13.8574652777778,29.9
2.06666666666667,11.7920273136372,28.4677658425849,4.0282691325833,-0.00391902693031998,1,13.8444444444444,29.9
2.1,11.7917668807299,28.6019756623651,4.02435131066892,-0.00391782191437873,1,13.8296875,29.9
2.13333333333333,11.7915030194944,28.7360547777554,4.02043443749676,-0.00391687317216061,1,13.8131944444444,29.9
2.16666666666667,11.791235538998,28.8700032175731,4.01651802811804,-0.00391640937871696,1,13.7949652777778,29.9
2.2,11.7909642777428,29.0038210156779,4.01260156261312,-0.00391646550492553,1,13.775,29.9
2.23333333333333,11.7906891177468,29.1375082095737,4.00868468090471,-0.00391688170840876,1,13.7532986111111,29.9
2.26666666666667,11.7904099912915,29.2710648394035,4.00476732209671,-0.00391735880799704,1,13.7298611111111,29.9
2.3,11.7901268804998,29.4044909472225,4.00084977093877,-0.0039175511579419,1,13.7046875,29.9
2.33333333333333,11.7898398108244,29.5377865764673,3.9969326039457,-0.00391716699307265,2,13.6777777777778,29.9
2.36666666666667,11.7895488402386,29.6709517715652,3.99301655722261,-0.00391604672309098,2,13.6491319444444,29.9
2.4,11.7892540463076,29.8039865776447,3.98910235801704,-0.00391419920556668,2,13.61875,29.9
2.43333333333333,11.7889555133176,29.9368910403198,3.98519056773425,-0.00391179028278676,2,13.5866319444444,29.9
2.46666666666667,11.7886533212884,30.0696652055319,3.98128147591951,-0.00390909181474575,2,13.5527777777778,29.9
2.5,11.7883475380875,30.202309119434,3.97737506682823,-0.00390640909127526,2,13.5171875,29.9
2.53333333333333,11.788038215144,30.3348228283095,3.97347105898455,-0.00390400784368206,2,13.4798611111111,29.9
2.56666666666667,11.7877253865716,30.4672063785174,3.96956899975703,-0.00390205922751896,2,13.4407986111111,29.9
2.6,11.7874090709924,30.599459816457,3.96566838583621,-0.00390061392082153,2,13.4,29.9
2.63333333333333,11.7870892750553,30.7315831885467,3.96176877830237,-0.00389960753384244,2,13.3574652777778,29.9
2.66666666666667,11.7867659976067,30.8635765412119,3.95786988682332,-0.00389889147905143,2,13.3131944444444,29.9
2.7,11.7864392336299,30.9954399208791,3.95397160862165,-0.00389827820166166,2,13.2671875,29.9
2.73333333333333,11.7861089773716,31.1271733739721,3.95007402057894,-0.0038975880427139,2,13.2194444444444,29.9
2.76666666666667,11.7857752244057,31.2587769469093,3.94617733383202,-0.00389668674692478,2,13.1699652777778,29.9
2.8,11.785437972683,31.3902506861013,3.94228182714067,-0.00389550669134975,2,13.11875,29.9
2.83333333333333,11.7850972228119,31.5215946379484,3.93838777725896,-0.00389404988170261,2,13.0657986111111,29.9
2.86666666666667,11.7847529778968,31.652808848838,3.93449540197866,-0.00389237528030462,2,13.0111111111111,29.9
2.9,11.7844052432321,31.7838933651428,3.93060482586871,-0.00389057610995325,2,12.9546875,29.9
2.93333333333333,11.7840540260523,31.9148482332194,3.92671607189112,-0.00388875397758115,2,12.8965277777778,29.9
2.96666666666667,11.7836993354104,32.0456734994072,3.92282907582059,-0.00388699607053367,2,12.8366319444444,29.9
3,11.7833411821499,32.1763692100283,3.91894371603175,-0.00388535978884041,2,12.775,29.9
3.03333333333333,11.7829795788667,32.306935411387,3.91505984934963,-0.00388386668212348,2,12.7116319444444,29.9
3.06666666666667,11.7826145397518,32.4373721497694,3.91117734420022,-0.00388250514940358,2,12.6465277777778,29.9
3.1,11.7822460802406,32.5676794714424,3.90729610463997,-0.00388123956025188,2,12.5796875,29.9
3.13333333333333,11.7818742164135,32.697857443166,3.90341830618921,-0.00387779845075942,2,12.5111111111111,29.9
3.16666666666667,11.7814989638782,32.8279063255229,3.89955338436684,-0.0038649218223723,2,12.4407986111111,29.9
3.2,11.7811203365348,32.9578267749,3.8957151210943,-0.00383826327254422,2,12.36875,29.9
3.23333333333333,11.7807383457118,33.0876199307812,3.89191821876515,-0.00379690232914776,2,12.2949652777778,29.9
3.26666666666667,11.780352999788,33.2172873925679,3.88817529976414,-0.00374291900100809,2,12.2194444444444,29.9
3.3,11.7799643042984,33.3468311179292,3.88449517879846,-0.00368012096567849,2,12.1421875,29.9
3.33333333333333,11.7795722624308,33.4762532848447,3.88088228776658,-0.00361289103188378,2,12.0631944444444,29.9
3.36666666666667,11.7791768470573,33.6055668282298,3.87861328526029,-0.00226900250628237,2,11.9824652777778,29.9
3.4,11.7787777075402,33.734903391916,3.8830623900848,0.00444910482450345,2,11.9,29.9
3.43333333333333,11.7783740820188,33.8645405290908,3.89680243745923,0.0137400473744296,2,11.8157986111111,29.9
3.46666666666667,11.7779650690543,33.9947953311105,3.92009172186105,0.0232892844018227,4,11.7298611111111,29.9
3.5,11.7775497398495,34.125979617079,3.95246790270639,0.0323761808453376,4,11.6421875,29.9
3.53333333333333,11.7771271755234,34.2583845493852,3.9931700197775,0.0407021170711155,4,11.5527777777778,29.9
3.56666666666667,11.776696495201,34.3922703440776,4.04114178763896,0.0479717678614602,4,11.4616319444444,29.9
3.6,11.7762568723167,34.5278617567166,4.0953404251573,0.0541986375183399,4,11.36875,29.9
3.63333333333333,11.7758075362067,34.6653499725521,4.15479648622918,0.0594560610718728,4,11.2741319444444,29.9
3.66666666666667,11.7753477737846,34.8048952054893,4.21862316864284,0.0638266824136657,4,11.1777777777778,29.9
3.7,11.7748769311684,34.946629634579,4.28602650687029,0.0674033382274439,4,11.0796875,29.9
3.73333333333333,11.7743944143305,35.0906605932052,4.35630992646521,0.070283419594924,4,10.9798611111111,29.9
3.76666666666667,11.7738996884014,35.2370737940807,4.42887050024343,0.0725605737782251,4,10.8782986111111,29.9
3.8,11.7733922762032,35.385936163641,4.5031822265502,0.0743117263067683,4,10.775,29.9
3.83333333333333,11.7728717564202,35.5372980518045,4.57875846648297,0.075576239932766,4,10.6699652777778,29.9
3.86666666666667,11.7723377669729,35.6911930582101,4.65509818947185,0.0763397229888838,4,10.5631944444444,29.9
3.9,11.771789997889,35.8476406781838,4.73188254526869,0.07678435579684,4,10.4546875,29.9
3.93333333333333,11.7712281718879,36.0066523475216,4.8088988521914,0.077016306922709,4,10.3444444444444,29.9
3.96666666666667,11.7706520452395,36.1682306897811,4.88582710520508,0.0769282530136826,4,10.2324652777778,29.9
4,11.7700614123841,36.3323675522132,4.96236709092511,0.0765399857200251,4,10.11875,29.9
4.03333333333333,11.7694560982819,36.4990459730978,5.03828419954454,0.0759171086194268,4,10.0032986111111,29.9
4.06666666666667,11.7688359526846,36.6682416684711,5.11337906674313,0.0750948671985903,4,9.88611111111111,29.9
4.1,11.7682008409045,36.8399256944513,5.18758932475661,0.0742102580134807,4,9.7671875,29.9
4.13333333333333,11.7675506278716,37.0140691624953,5.26094815215727,0.0733588274006651,4,9.64652777777778,29.9
4.16666666666667,11.7668851784861,37.1906431090876,5.33341033550942,0.0724621833521457,4,9.52413194444444,29.9
4.2,11.7662043637128,37.3696167649501,5.40492077327602,0.0715104377666034,4,9.4,29.9
4.23333333333333,11.7655080632983,37.550956930011,5.47539188996644,0.0704711166904168,4,9.27413194444444,29.9
4.26666666666667,11.7647961675055,37.7346276835839,5.54473694192482,0.06934505195838,4,9.14652777777778,29.9
4.3,11.7640685831288,37.9205889359691,5.61280145052621,0.0680645086013918,4,9.0171875,29.9
4.33333333333333,11.7633252362378,38.1087959564943,5.67946807831107,0.0666666277848629,4,8.88611111111111,29.9
4.36666666666667,11.7625660698738,38.2992003307108,5.74462677835612,0.0651587000450498,4,8.75329861111111,29.9
4.4,11.761791045961,38.491749738145,5.80814462327452,0.0635178449183984,4,8.61875,29.9
4.43333333333333,11.7610001541392,38.6863858884543,5.86976857906459,0.0616239557900702,4,8.48246527777778,29.9
4.46666666666667,11.7601934460767,38.8830358113233,5.92882140915655,0.0590528300919635,4,8.34444444444444,29.9
4.5,11.7593710852033,39.0815995129765,5.98449025677862,0.0556688476220639,4,8.2046875,29.9
4.53333333333333,11.7585333667318,39.2819460774433,6.03536738507039,0.0508771282917717,4,8.06319444444444,29.9
4.56666666666667,11.7576808949328,39.4838697120445,6.07871137523687,0.0433439901664796,4,7.91996527777778,29.9
