Time,x_ego,y_ego,velocity,acceleration,action,x_ped,y_ped
0,11.8,8.9,7,0,1,15.5,29.9
0.0333333333333333,11.7999975091174,9.13327037939202,6.99615578259574,-0.003844217404259,1,15.3694444444444,29.9
0.0666666666666667,11.7999819236524,9.36640659872134,6.99196950494788,-0.0041862776478645,1,15.2444444444444,29.9
0.1,11.7999448082122,9.59940075446968,6.9876951028062,-0.0042744021416814,1,15.125,29.9
0.133333333333333,11.7998817885687,9.83225378168658,6.98349789683301,-0.00419720597318296,1,15.0111111111111,29.9
0.166666666666667,11.7997913392459,10.0649678694119,6.97935624257674,-0.00414165425627111,1,14.9027777777778,29.9
0.2,11.7996736971216,10.2975445932427,6.97525462048206,-0.00410162209468456,1,14.8,29.9
0.233333333333333,11.7995300291929,10.5299850894809,6.97118191091701,-0.00407270956505013,1,14.7027777777778,29.9
0.266666666666667,11.7993618819806,10.7622901799815,6.96713015182141,-0.00405175909559574,1,14.6111111111111,29.9
0.3,11.7991708727963,10.9944604615601,6.96309364362937,-0.00403650819203882,1,14.525,29.9
0.333333333333333,11.7989585505794,11.2264963699647,6.95906830588633,-0.00402533774304548,1,14.4444444444444,29.9
0.366666666666667,11.7987263504796,11.4583982256298,6.95505121626165,-0.00401708962467229,1,14.3694444444444,29.9
0.4,11.7984755820345,11.6901662663942,6.95104028107019,-0.00401093519146478,1,14.3,29.9
0.433333333333333,11.7982074150447,11.9218006708935,6.94703400001742,-0.00400628105276901,1,14.2361111111111,29.9
0.466666666666667,11.7979228510536,12.1533015752782,6.94303129812253,-0.00400270189489316,1,14.1777777777778,29.9
0.5,11.7976226857613,12.38466908516,6.93903140541881,-0.0039998927037157,1,14.125,29.9
0.533333333333333,11.7973074762541,12.6159032841509,6.93503377064413,-0.0039976347746844,1,14.0777777777778,29.9
0.566666666666667,11.7969775271659,12.8470042399794,6.93103799918974,-0.00399577145438723,1,14.0361111111111,29.9
0.6,11.7966329043038,13.0779720088869,6.92704380845852,-0.00399419073122154,1,14,29.9
0.633333333333333,11.7962734762027,13.3088066388078,6.92305099579353,-0.00399281266498797,1,13.9694444444444,29.9
0.666666666666667,11.7958989765878,13.5395081716858,6.91905941551783,-0.00399158027570135,1,13.9444444444444,29.9
0.7,11.7955090759439,13.7700766451742,6.91506896257487,-0.00399045294295597,1,13.925,29.9
0.733333333333333,11.7951034491994,14.0005120938859,6.91107956092793,-0.00398940164694483,1,13.9111111111111,29.9
0.766666666666667,11.7946818286571,14.2308145503115,6.90709115536553,-0.00398840556240021,1,13.9027777777778,29.9
0.8,11.7942440356559,14.4609840454821,6.90310370572395,-0.00398744964157505,1,13.9,29.9
0.833333333333333,11.7937899896067,14.6910206094374,6.89911718280712,-0.00398652291683632,1,13.9,29.9
0.866666666666667,11.7933196976455,14.9209242715422,6.89513156548208,-0.00398561732503477,1,13.9,29.9
0.9,11.7928332312558,15.1506950606913,6.89114683857561,-0.00398472690646923,1,13.9,29.9
0.933333333333333,11.7923306973982,15.3803330054345,6.88716299131122,-0.00398384726439094,1,13.9,29.9
0.966666666666667,11.7918122110751,15.6098381340511,6.88318001611621,-0.00398297519500979,1,13.9,29.9
1,11.7912778743463,15.8392104745957,6.87919790769646,-0.00398210841975644,1,13.9,29.9
1.03333333333333,11.7907277642841,16.0684500549313,6.87521666232244,-0.00398124537402023,1,13.9,29.9
1.06666666666667,11.7901619298932,16.2975569027601,6.87123627729448,-0.00398038502796005,1,13.9,29.9
1.1,11.7895803961394,16.5265310456554,6.86725675056326,-0.00397952673121527,1,13.9,29.9
1.13333333333333,11.7889831722011,16.7553725110947,6.86327808048087,-0.00397867008238695,1,13.9,29.9
1.16666666666667,11.7883702609054,16.9840813264916,6.85930026565417,-0.00397781482670023,1,13.9,29.9
1.2,11.7877416668595,17.2126575192229,6.85532330487073,-0.00397696078343834,1,13.9,29.9
1.23333333333333,11.7870974017457,17.4411011166486,6.85134719706929,-0.0039761078014422,1,13.9,29.9
1.26666666666667,11.7864374863055,17.6694121461233,6.8473719413312,-0.0039752557380881,1,13.9,29.9
1.3,11.7857619494314,17.8975906349995,6.84339753687595,-0.00397440445525721,1,13.9,29.9
1.33333333333333,11.7850708253555,18.1256366106249,6.83942398305068,-0.00397355382526587,1,13.9,29.9
1.36666666666667,11.7843641501216,18.353550100337,6.83545127931043,-0.00397270374024661,1,13.9,29.9
1.4,11.7836419583958,18.581331131456,6.83147942519041,-0.00397185412001999,1,13.9,29.9
1.43333333333333,11.7829042813297,18.8089797312804,6.82750842027504,-0.00397100491537916,1,13.9,29.9
1.46666666666667,11.7821511457601,19.0364959270849,6.82353826416899,-0.00397015610604257,1,13.9,29.9
1.5,11.7813825746373,19.2638797461214,6.81956895647487,-0.00396930769411963,1,13.9,29.9
1.53333333333333,11.7805985883062,19.4911312156225,6.81560049677976,-0.00396845969511528,1,13.9,29.9
1.56666666666667,11.7797992061418,19.7182503628063,6.81163288465103,-0.00396761212872843,1,13.9,29.9
1.6,11.7789844480733,19.9452372148808,6.8076661196396,-0.00396676501143212,1,13.9,29.9
1.63333333333333,11.7781543356592,20.1720917990479,6.80370020128774,-0.00396591835185323,1,13.9,29.9
1.66666666666667,11.7773088925604,20.3988141425051,6.79973512913837,-0.00396507214937714,1,13.9,29.9
1.7,11.7764481444303,20.6254042724456,6.79577090274296,-0.0039642263954045,1,13.9,29.9
1.73333333333333,11.7755721183754,20.8518622160569,6.79180752166659,-0.00396338107637639,1,13.9,29.9
1.76666666666667,11.7746808422048,21.078188000519,6.78784498548917,-0.00396253617742026,1,13.9,29.9
1.8,11.773774343686,21.3043816530011,6.78388329380354,-0.00396169168562821,1,13.9,29.9
1.83333333333333,11.772852649975,21.5304432006607,6.77992244621125,-0.00396084759228277,1,13.8991319444444,29.9
1.86666666666667,11.7719157873111,21.7563726706413,6.77596244231754,-0.00396000389371132,1,13.8965277777778,29.9
1.9,11.7709637809848,21.9821700900731,6.77200328172668,-0.00395916059086598,1,13.8921875,29.9
1.93333333333333,11.7699966555243,22.2078354860728,6.76804496403868,-0.00395831768799582,1,13.8861111111111,29.9
1.96666666666667,11.7690144350064,22.4333688857451,6.76408748884778,-0.00395747519090239,1,13.8782986111111,29.9
2,11.7680171433934,22.6587703161836,6.76013085574255,-0.00395663310523098,1,13.86875,29.9
2.03333333333333,11.7670048048115,22.8840398044722,6.75617506430736,-0.00395579143519065,1,13.8574652777778,29.9
2.06666666666667,11.7659774437231,23.1091773776857,6.75222011412448,-0.00395495018288106,1,13.8444444444444,29.9
2.1,11.7649350849759,23.3341830628899,6.74826600477623,-0.00395410934824891,1,13.8296875,29.9
2.13333333333333,11.763877753748,23.5590568871419,6.74431273584672,-0.00395326892951164,1,13.8131944444444,29.9
2.16666666666667,11.7628054754261,23.7837988774889,6.74036030692282,-0.00395242892389192,1,13.7949652777778,29.9
2.2,11.7617182754602,24.0084090609686,6.73640871759442,-0.00395158932840278,1,13.775,29.9
2.23333333333333,11.760616179234,24.2328874646079,6.73245796745393,-0.00395075014049606,1,13.7532986111111,29.9
2.26666666666667,11.7594992119777,24.4572341154225,6.72850805609546,-0.00394991135846112,1,13.7298611111111,29.9
2.3,11.7583673987335,24.6814490404175,6.72455898311388,-0.00394907298158831,1,13.7046875,29.9
2.33333333333333,11.7572207643693,24.9055322665865,6.72061074810387,-0.00394823501000463,1,13.6777777777778,29.9
2.36666666666667,11.756059333626,25.1294838209123,6.71666335065944,-0.00394739744442774,1,13.6491319444444,29.9
2.4,11.7548831311803,25.3533037303672,6.71271679037365,-0.00394656028579821,1,13.61875,29.9
2.43333333333333,11.7536928836435,25.5768474221494,6.70009514762441,-0.0126216427492318,1,13.5866319444444,29.9
2.46666666666667,11.7524914248246,25.7997109437683,6.67191109968319,-0.0281840479412221,3,13.5527777777778,29.9
2.5,11.7512852240525,26.0214620816437,6.63335493973364,-0.0385561599495547,3,13.5171875,29.9
2.53333333333333,11.7500815122339,26.2418990398212,6.5930608580906,-0.040294081643041,3,13.4798611111111,29.9
2.56666666666667,11.7488858220931,26.4609355912713,6.54932939116409,-0.0437314669265065,3,13.4407986111111,29.9
2.6,11.7477043165036,26.6784568391015,6.50213966964399,-0.0471897215200974,3,13.4,29.9
2.63333333333333,11.7465408321892,26.8944053085358,6.45495857268093,-0.0471810969630626,3,13.3574652777778,29.9
2.66666666666667,11.7453972786372,27.10881000354,6.40950854022011,-0.0454500324608142,3,13.3131944444444,29.9
2.7,11.7442763275785,27.3217577054393,6.36753346786135,-0.0419750723587686,3,13.2671875,29.9
2.73333333333333,11.7431786738821,27.5334220137598,6.3324990030605,-0.035034464800848,3,13.2194444444444,29.9
2.76666666666667,11.7421026881674,27.7440916683017,6.30784842338599,-0.0246505796745051,3,13.1699652777778,29.9
2.8,11.7410454974165,27.9540837012008,6.29183630921382,-0.016012114172173,1,13.11875,29.9
2.83333333333333,11.7400034783399,28.163744523157,6.28797084186044,-0.00386546735337934,1,13.0657986111111,29.9
2.86666666666667,11.7389727504017,28.3732766085678,6.2841081532443,-0.0038626886161417,1,13.0111111111111,29.9
2.9,11.7379479555586,28.58268001608,6.28024776561623,-0.00386038762806518,1,12.9546875,29.9
2.93333333333333,11.7369244738007,28.7919547916801,6.27638939736255,-0.00385836825368191,1,12.8965277777778,29.9
2.96666666666667,11.7358990929721,29.0011009766507,6.27253284351047,-0.00385655385208228,1,12.8366319444444,29.9
3,11.7348691405189,29.2101186063684,6.26867790216492,-0.00385494134554509,1,12.775,29.9
3.03333333333333,11.7338304577604,29.4190077024569,6.26482436278524,-0.00385353937968702,1,12.7116319444444,29.9
3.06666666666667,11.7327802364984,29.6277682886769,6.2609720004356,-0.00385236234963582,1,12.6465277777778,29.9
3.1,11.7317174301483,29.8364003941282,6.25712058777684,-0.00385141265876054,1,12.5796875,29.9
3.13333333333333,11.730642245525,30.044904051646,6.25326993218198,-0.00385065559486009,1,12.5111111111111,29.9
3.16666666666667,11.7295556832259,30.2532792962801,6.24941990672888,-0.00385002545310265,1,12.4407986111111,29.9
3.2,11.7284591631153,30.4615261640219,6.24557046434322,-0.00384944238565588,1,12.36875,29.9
3.23333333333333,11.7273542446546,30.6696446908272,6.24172163236526,-0.00384883197796704,1,12.2949652777778,29.9
3.26666666666667,11.7262424347417,30.8776349119223,6.23787349116762,-0.0038481411976381,1,12.2194444444444,29.9
3.3,11.7251250674161,31.0854968613562,6.23402614421165,-0.00384734695596389,1,12.1421875,29.9
3.33333333333333,11.7240032380381,31.2932305717501,6.23017968794,-0.00384645627165092,1,12.0631944444444,29.9
3.36666666666667,11.7228777767155,31.5008360742031,6.22633418858697,-0.0038454993530328,1,11.9824652777778,29.9
3.4,11.7217492494264,31.7083133983171,6.22248967015431,-0.00384451843265943,1,11.9,29.9
3.43333333333333,11.7206179787561,31.9156625723154,6.21864611442884,-0.00384355572546724,1,11.8157986111111,29.9
3.46666666666667,11.7194840785372,32.12288362323,6.21480347092695,-0.00384264350188879,1,11.7298611111111,29.9
3.5,11.7183474977946,32.3299765771402,6.21096167269632,-0.00384179823063402,1,11.6421875,29.9
3.53333333333333,11.7172080696034,32.5369414594373,6.2071206532698,-0.00384101942651771,1,11.5527777777778,29.9
3.56666666666667,11.71606556033,32.7437782950937,6.20328036065935,-0.00384029261045438,1,11.4616319444444,29.9
3.6,11.7149197147836,32.9504871089111,6.19944076572569,-0.00383959493366159,1,11.36875,29.9
3.63333333333333,11.7137702933818,33.1570679257286,6.19560186405453,-0.00383890167115464,1,11.2741319444444,29.9
3.66666666666667,11.7126170986089,33.3635207705722,6.19176367212005,-0.00383819193447721,1,11.1777777777778,29.9
3.7,11.7114599896353,33.5698456687432,6.18792621966274,-0.0038374524573106,1,11.0796875,29.9
3.73333333333333,11.7102988856759,33.7760426458434,6.18408954068579,-0.00383667897695261,1,10.9798611111111,29.9
3.76666666666667,11.7091337601385,33.9821117277502,6.18025366530773,-0.00383587537806118,1,10.8782986111111,29.9
3.8,11.7079646285876,34.188052940556,6.17641861407093,-0.00383505123679928,1,10.775,29.9
3.83333333333333,11.7067915338805,34.3938663104907,6.17258439543996,-0.00383421863097055,1,10.6699652777778,29.9
3.86666666666667,11.7056145315501,34.5995518638433,6.16875100637463,-0.0038333890653286,1,10.5631944444444,29.9
3.9,11.7044336777432,34.8051096268966,6.16491843521723,-0.00383257115740054,1,10.4546875,29.9
3.93333333333333,11.7032490210195,35.0105396258813,6.16108666579217,-0.00383176942505781,1,10.3444444444444,29.9
3.96666666666667,11.7020605982873,35.2158418869533,6.15725568158888,-0.00383098420329375,1,10.2324652777778,29.9
4,11.7008684343276,35.4210164361899,6.15342546912313,-0.00383021246575144,1,10.11875,29.9
4.03333333333333,11.6996725438278,35.6260632996001,6.14959601994391,-0.00382944917922057,1,10.0032986111111,29.9
4.06666666666667,11.6984729346753,35.8309825031431,6.14576733115824,-0.003828688785668,1,9.88611111111111,29.9
4.1,11.697269611379,36.0357740727467,6.1419394046898,-0.00382792646843555,1,9.7671875,29.9
4.13333333333333,11.6960625778098,36.2404380343224,6.13811224570772,-0.00382715898208286,1,9.64652777777778,29.9
4.16666666666667,11.6948518388597,36.4449744137753,6.13428586073956,-0.0038263849681659,1,9.52413194444444,29.9
4.2,11.6936374009958,36.6493832370069,6.13046025593304,-0.00382560480651861,1,9.4,29.9
4.23333333333333,11.6924192719641,36.8536645299136,6.12663543579404,-0.00382482013899565,1,9.27413194444444,29.9
4.26666666666667,11.6911974600361,37.0578183183823,6.12281140255338,-0.00382403324065983,1,9.14652777777778,29.9
4.3,11.689971973191,37.2618446282861,6.11898815614822,-0.00382324640515641,1,9.0171875,29.9
4.33333333333333,11.6887428185348,37.4657434854804,6.115165694679,-0.00382246146922594,1,8.88611111111111,29.9
4.36666666666667,11.6875100021044,37.6695149158023,6.11134401513621,-0.00382167954278589,1,8.75329861111111,29.9
4.4,11.6862735290575,37.8731589450714,6.1075231141839,-0.00382090095231469,1,8.61875,29.9
4.43333333333333,11.6850334041371,38.0766755990926,6.10370298882514,-0.00382012535875997,1,8.48246527777778,29.9
4.46666666666667,11.6837896322384,38.2800649036593,6.0998836368411,-0.00381935198404015,1,8.34444444444444,29.9
4.5,11.6825422189107,38.4833268845569,6.09606505696771,-0.00381857987338385,1,8.2046875,29.9
4.53333333333333,11.6812911706696,38.6864615675643,6.09224724883694,-0.00381780813077714,1,8.06319444444444,29.9
4.56666666666667,11.6800364950651,38.8894689784544,6.0884302127514,-0.00381703608553519,1,7.91996527777778,29.9
4.6,11.6787782005218,39.0923491429934,6.08461394937887,-0.0038162633725296,1,7.775,29.9
4.63333333333333,11.6775170381363,39.2951020914423,6.08079844946223,-0.00381549991664265,1,7.62829861111111,29.9
4.66666666666667,11.6762562290006,39.4977278691461,6.07698371223438,-0.00381473722785231,1,7.47986111111111,29.9
