Time,x_ego,y_ego,velocity,acceleration,action,x_ped,y_ped
0,11.8,8.9,7,0,1,15.5,29.9
0.0333333333333333,11.7999967069701,9.1332703793903,6.9961557848882,-0.003844215111795,1,15.4972222222222,29.9
0.0666666666666667,11.799976102465,9.36640659865409,6.99196953026326,-0.00418625462494848,1,15.4888888888889,29.9
0.1,11.7999270346132,9.59940075386442,6.98769518926083,-0.00427434100243129,1,15.475,29.9
0.133333333333333,11.7998428775534,9.83225377892433,6.98349810278158,-0.00419708647924733,1,15.4555555555556,29.9
0.166666666666667,11.7997180251847,10.0649678604256,6.9793566392989,-0.00414146348268041,1,15.4305555555556,29.9
0.2,11.7995499338155,10.2975445700663,6.97525524769453,-0.00410139160436618,1,15.4,29.9
0.233333333333333,11.7993386637955,10.5299850392688,6.97118276801246,-0.00407247968207081,1,15.3666666666667,29.9
0.266666666666667,11.7990857422954,10.7622900847385,6.96713120753229,-0.00405156048017119,1,15.3333333333333,29.9
0.3,11.7987933878425,10.9944602985135,6.96309485203458,-0.00403635549771053,1,15.3,29.9
0.333333333333333,11.7984640445851,11.2264961123393,6.95906961981445,-0.0040252322201324,1,15.2666666666667,29.9
0.366666666666667,11.7981001355558,11.4583978435652,6.95505259486612,-0.00401702494832534,1,15.2333333333333,29.9
0.4,11.7977039421258,11.6901657278137,6.95104169229355,-0.00401090257256698,1,15.2,29.9
0.433333333333333,11.797277537843,11.92179994221,6.94703542008514,-0.00400627220841709,1,15.1666666666667,29.9
0.466666666666667,11.7968227350607,12.1533006218862,6.94303271000188,-0.0040027100832587,1,15.1333333333333,29.9
0.5,11.7963410310557,12.3846678717005,6.93903279738416,-0.00399991261771593,1,15.1,29.9
0.533333333333333,11.7958335598288,12.6159017745604,6.93503513533598,-0.00399766204818253,1,15.0666666666667,29.9
0.566666666666667,11.7953010641321,12.8470023973548,6.93103933308059,-0.00399580225538632,1,15.0333333333333,29.9
0.6,11.7947439007864,13.0779697952146,6.9270451114578,-0.00399422162279173,1,15,29.9
0.633333333333333,11.7941620845874,13.308804014616,6.92305227075347,-0.00399284070432859,1,14.9666666666667,29.9
0.666666666666667,11.7935553662839,13.5395050956842,6.91906066753124,-0.00399160322223402,1,14.9333333333333,29.9
0.7,11.7929233319097,13.7700730739382,6.91507019808933,-0.00399046944191195,1,14.9,29.9
0.733333333333333,11.792265506442,14.0005079816298,6.91108078678634,-0.00398941130299146,1,14.8666666666667,29.9
0.766666666666667,11.7915814450311,14.2308098487741,6.90709237791097,-0.00398840887536966,1,14.8333333333333,29.9
0.8,11.7908707991855,14.4609787039251,6.90310493009273,-0.00398744781823535,1,14.8,29.9
0.833333333333333,11.7901333517055,14.6910145747371,6.89911841249644,-0.00398651759629498,1,14.7666666666667,29.9
0.866666666666667,11.7893690209711,14.9209174883398,6.89513280222868,-0.00398561026776001,1,14.7333333333333,29.9
0.9,11.7885778407689,15.1506874715634,6.89114808252648,-0.00398471970220005,1,14.7,29.9
0.933333333333333,11.7877599251671,15.3803245510475,6.88716424141584,-0.00398384111063432,1,14.6666666666667,29.9
0.966666666666667,11.7869154287039,15.6098287532739,6.88318127063417,-0.00398297078166721,1,14.6333333333333,29.9
1,11.7860445106795,15.8392001045602,6.8791991647048,-0.00398210592937787,1,14.6,29.9
1.03333333333333,11.7851473094045,16.0684386310424,6.87521792012583,-0.00398124457896643,1,14.5666666666667,29.9
1.06666666666667,11.7842239287946,16.2975443586672,6.87123753468036,-0.0039803854454723,1,14.5333333333333,29.9
1.1,11.7832744365615,16.526517313204,6.8672580068895,-0.00397952779085742,1,14.5,29.9
1.13333333333333,11.7822988710298,16.7553575202757,6.86327933562217,-0.00397867126733242,1,14.4666666666667,29.9
1.16666666666667,11.781297252571,16.9840650054029,6.85930151985676,-0.00397781576541156,1,14.4333333333333,29.9
1.2,11.7802695957301,17.2126397940509,6.85532455857148,-0.00397696128527958,1,14.4,29.9
1.23333333333333,11.7792159190372,17.4410819116708,6.85134845072784,-0.00397610784363778,1,14.3666666666667,29.9
1.26666666666667,11.7781362508438,17.6693913837279,6.84737319530801,-0.00397525541983068,1,14.3333333333333,29.9
1.3,11.7770306308884,17.8975682357136,6.84339879137038,-0.00397440393762771,1,14.3,29.9
1.33333333333333,11.7758991083797,18.1256124931448,6.83942523809653,-0.00397355327385007,1,14.2666666666667,29.9
1.36666666666667,11.7747417380037,18.3535241815514,6.83545253481395,-0.00397270328258337,1,14.2333333333333,29.9
1.4,11.773558575396,18.5813033264603,6.83148068099029,-0.00397185382365262,1,14.2,29.9
1.43333333333333,11.7723496733573,18.8089499533808,6.82750967620397,-0.0039710047863224,1,14.1666666666667,29.9
1.46666666666667,11.7711150795931,19.0364640877937,6.8235395201012,-0.00397015610277318,1,14.1333333333333,29.9
1.5,11.7698548361957,19.2638457551487,6.8195702123514,-0.00396930774979776,1,14.1,29.9
1.53333333333333,11.7685689806116,19.4910949808678,6.81560175261077,-0.00396845974062909,1,14.0666666666667,29.9
1.56666666666667,11.7672575475346,19.7182117903532,6.81163414049997,-0.00396761211080587,1,14.0333333333333,29.9
1.6,11.7659205710691,19.9451962089979,6.80766737559737,-0.00396676490260006,1,14,29.9
1.63333333333333,11.7645580865903,20.1720482621951,6.80370145744554,-0.00396591815182656,1,13.9666666666667,29.9
1.66666666666667,11.7631704427913,20.3987098449592,6.79624858189976,-0.00745287554577967,1,13.9333333333333,29.9
1.7,11.761758476749,20.6250363931457,6.78360890262175,-0.0126396792780126,1,13.9,29.9
1.73333333333333,11.7603232315169,20.8508550257167,6.76578318022134,-0.0178257224004046,1,13.8666666666667,29.9
1.76666666666667,11.7588659800321,21.0759641871868,6.74105016668509,-0.0247330135362542,3,13.8333333333333,29.9
1.8,11.7573885782464,21.3000758881393,6.70594500334466,-0.0351051633404307,3,13.8,29.9
1.83333333333333,11.7558931664953,21.5228731237463,6.6621914788841,-0.0437535244605538,3,13.7666666666667,29.9
1.86666666666667,11.7543818502407,21.744067645155,6.60979118938472,-0.0524002894993814,3,13.7333333333333,29.9
1.9,11.7528566933014,21.9634003228974,6.55048968636148,-0.0593015030232413,3,13.7,29.9
1.93333333333333,11.7513202567016,22.1805543114432,6.47907850541558,-0.0714111809459057,3,13.6666666666667,29.9
1.96666666666667,11.7497761654679,22.3950685917734,6.3921155170829,-0.0869629883326706,3,13.6333333333333,29.9
2,11.7482287970465,22.6063957564182,6.28785940713308,-0.104256109949827,3,13.6,29.9
2.03333333333333,11.7466829466381,22.8139597891077,6.16633488325625,-0.121524523876823,3,13.5666666666667,29.9
2.06666666666667,11.7451426913252,23.0173290073257,6.03617726073743,-0.13015762251882,3,13.5333333333333,29.9
2.1,11.7436117489133,23.2161579118638,5.89392243469822,-0.142254826039217,3,13.5,29.9
2.13333333333333,11.7420940194602,23.4101014381153,5.74306033707312,-0.150862097625097,3,13.4666666666667,29.9
2.16666666666667,11.7405927702909,23.5989301186268,5.58703675785446,-0.156023579218663,3,13.4333333333333,29.9
2.2,11.7391109948822,23.7824715726981,5.425830870346,-0.161205887508462,3,13.4,29.9
2.23333333333333,11.7376515674843,23.9605825210788,5.26120915539935,-0.164621714946645,3,13.3666666666667,29.9
2.26666666666667,11.7362174208195,24.1331200748881,5.09142814493121,-0.169781010468136,3,13.3333333333333,29.9
2.3,11.7348115244465,24.2999410057489,4.91821051235933,-0.173217632571886,3,13.3,29.9
2.33333333333333,11.7334366507426,24.4609308056719,4.74155664257236,-0.176653869786967,3,13.2666666666667,29.9
2.36666666666667,11.7320951265044,24.616032746907,4.56493297575152,-0.176623666820844,3,13.2333333333333,29.9
2.4,11.7307894736153,24.7651614033623,4.38315142351895,-0.181781552232566,3,13.2,29.9
2.43333333333333,11.7295230844181,24.908115247413,4.19440874231285,-0.188742681206104,3,13.1666666666667,29.9
2.46666666666667,11.7282991413921,25.0447183922459,4.00210690009531,-0.192301842217534,3,13.1333333333333,29.9
2.5,11.7271201303572,25.1748820846707,3.80803579154365,-0.194071108551659,3,13.1,29.9
2.53333333333333,11.7259885091271,25.2985188663735,3.61048437073419,-0.19755142080946,3,13.0666666666667,29.9
2.56666666666667,11.7249071761614,25.4154844441007,3.4077542558962,-0.202730114837997,3,13.0333333333333,29.9
2.6,11.7238792492134,25.5256065009746,3.19986275043275,-0.20789150546345,3,13,29.9
2.63333333333333,11.7229076013175,25.6287419185355,2.98854457626437,-0.211318174168377,3,12.9666666666667,29.9
2.66666666666667,11.72199546621,25.7247479428368,2.77208655328018,-0.216458022984185,3,12.9333333333333,29.9
2.7,11.7211475878781,25.8134533954398,2.55049535334816,-0.221591199932021,3,12.9,29.9
2.73333333333333,11.7203677457692,25.8947737649606,2.32896425120799,-0.221531102140171,3,12.8666666666667,29.9
2.76666666666667,11.7196582042349,25.9687115952712,2.10760066829338,-0.221363582914609,3,12.8333333333333,29.9
2.8,11.7190201742625,26.0352935080359,1.88795243270069,-0.219648235592694,3,12.8,29.9
2.83333333333333,11.7184536643317,26.0946040112929,1.67140393910969,-0.216548493590998,3,12.7666666666667,29.9
2.86666666666667,11.7179579264961,26.1467539761302,1.45833608157705,-0.213067857532637,3,12.7333333333333,29.9
2.9,11.7175317756529,26.1918628169785,1.24893939365128,-0.209396687925774,3,12.7,29.9
2.93333333333333,11.7171738348924,26.2300548580576,1.04332246630998,-0.205616927341301,3,12.6666666666667,29.9
2.96666666666667,11.7168828110415,26.2614588290664,0.841687717736741,-0.201634748573237,3,12.6333333333333,29.9
3,11.716657249793,26.2862112853921,0.644205084914102,-0.197482632822638,3,12.6,29.9
3.03333333333333,11.7164956015452,26.3044498753674,0.450853717593044,-0.193351367321059,3,12.5666666666667,29.9
3.06666666666667,11.7163962903961,26.3163142870618,0.261741820651248,-0.189111896941796,3,12.5333333333333,29.9
3.1,11.7163577812174,26.3219456600061,0.0768713567377493,-0.184870463913499,3,12.5,29.9
3.13333333333333,11.7163737195247,26.3220530075329,0.0212339738339394,-0.0556373829038099,3,12.4666666666667,29.9
3.16666666666667,11.7164031859294,26.3213460889167,0.00184430349777583,-0.0193896703361636,3,12.4333333333333,29.9
3.2,11.7164031859294,26.3213460889167,0.00376570940035173,0.0019214059025759,5,12.4,29.9
3.23333333333333,11.7164031859294,26.3213460889167,0.00631952861096634,0.00255381921061461,5,12.3666666666667,29.9
3.26666666666667,11.7164031859294,26.3213460889167,0.00928105159919281,0.00296152298822647,5,12.3333333333333,29.9
3.3,11.7164031859294,26.3213460889167,0.0123681460593808,0.00308709446018795,5,12.3,29.9
3.33333333333333,11.7164031859294,26.3213460889167,0.0152802866313992,0.00291214057201846,5,12.2666666666667,29.9
3.36666666666667,11.7164031859294,26.3213460889167,0.0177334476985578,0.00245316106715856,5,12.2333333333333,29.9
3.4,11.7164031859294,26.3213460889167,0.0194885074343484,0.00175505973579062,5,12.2,29.9
3.43333333333333,11.7164031859294,26.3213460889167,0.0203717198089884,0.000883212374640039,5,12.1666666666667,29.9
3.46666666666667,11.7164031859294,26.3213460889167,0.0202866809147749,-8.50388942135356e-05,5,12.1333333333333,29.9
3.5,11.7164031859294,26.3213460889167,0.0192179884701064,-0.00106869244466852,5,12.1,29.9
3.53333333333333,11.7164031859294,26.3213460889167,0.0172274272049432,-0.00199056126516315,5,12.0666666666667,29.9
3.56666666666667,11.7164031859294,26.3213460889167,0.0144439834012631,-0.0027834438036801,5,12.0333333333333,29.9
3.6,11.7164031859294,26.3213460889167,0.0110492903898011,-0.00339469301146202,5,12,29.9
3.63333333333333,11.7164031859294,26.3213460889167,0.00726023837738539,-0.00378905201241574,5,11.9666666666667,29.9
3.66666666666667,11.7164031859294,26.3213460889167,0.00331046292195789,-0.00394977545542751,5,11.9333333333333,29.9
3.7,11.7164031859294,26.3213460889167,0.000567718730378361,-0.00274274419157952,5,11.9,29.9
3.73333333333333,11.7164031859294,26.3213460889167,0.00415959560091214,0.00359187687053377,5,11.8666666666667,29.9
3.76666666666667,11.7164031859294,26.3213460889167,0.0072815529723776,0.00312195737146546,5,11.8333333333333,29.9
3.8,11.7164031859294,26.3213460889167,0.00979108028757553,0.00250952731519793,5,11.8,29.9
3.83333333333333,11.7164031859294,26.3213460889167,0.0115929542967087,0.0018018740091332,5,11.7666666666667,29.9
3.86666666666667,11.7164031859294,26.3213460889167,0.0126415746364763,0.00104862033976753,5,11.7333333333333,29.9
3.9,11.7164031859294,26.3213460889167,0.01293970750207,0.000298132865593765,5,11.7,29.9
3.93333333333333,11.7164031859294,26.3213460889167,0.0125341163087528,-0.000405591193317192,5,11.6666666666667,29.9
3.96666666666667,11.7164031859294,26.3213460889167,0.0115087182648884,-0.00102539804386447,5,11.6333333333333,29.9
4,11.7164031859294,26.3213460889167,0.0099760001958168,-0.00153271806907157,5,11.6,29.9
4.03333333333333,11.7164031859294,26.3213460889167,0.0080674582689256,-0.0019085419268912,5,11.5666666666667,29.9
4.06666666666667,11.7164031859294,26.3213460889167,0.00592380097075991,-0.00214365729816569,5,11.5333333333333,29.9
4.1,11.7164031859294,26.3213460889167,0.003685582230623,-0.00223821874013692,5,11.5,29.9
4.13333333333333,11.7164031859294,26.3213460889167,0.00148482330212358,-0.00220075892849941,5,11.4666666666667,29.9
4.16666666666667,11.7164031859294,26.3213460889167,0.00056194993291447,-0.000922873369209111,5,11.4333333333333,29.9
4.2,11.7164031859294,26.3213460889167,0.00235897113359382,0.00179702120067935,5,11.4,29.9
4.23333333333333,11.7164031859294,26.3213460889167,0.00383466006507114,0.00147568893147732,5,11.3666666666667,29.9
4.26666666666667,11.7164031859294,26.3213460889167,0.0049432073546403,0.00110854728956916,5,11.3333333333333,29.9
4.3,11.7164031859294,26.3213460889167,0.00566443127185588,0.000721223917215576,5,11.3,29.9
4.33333333333333,11.7164031859294,26.3213460889167,0.00600211606729649,0.000337684795440619,5,11.2666666666667,29.9
4.36666666666667,11.7164031859294,26.3213460889167,0.00598111149540047,-2.10045718960225e-05,5,11.2333333333333,29.9
4.4,11.7164031859294,26.3213460889167,0.00564351647944593,-0.000337595015954545,5,11.2,29.9
4.43333333333333,11.7164031859294,26.3213460889167,0.00504428720329544,-0.000599229276150488,5,11.1666666666667,29.9
4.46666666666667,11.7164031859294,26.3213460889167,0.00424660356837342,-0.000797683634922021,5,11.1333333333333,29.9
4.5,11.7164031859294,26.3213460889167,0.00331730147494024,-0.000929302093433181,5,11.1,29.9
4.53333333333333,11.7164031859294,26.3213460889167,0.00232263612035902,-0.000994665354581214,5,11.0666666666667,29.9
4.56666666666667,11.7164031859294,26.3213460889167,0.00132458821316894,-0.000998047907190081,5,11.0333333333333,29.9
4.6,11.7164031859294,26.3213460889167,0.000377865489548344,-0.000946722723620599,5,11,29.9
4.63333333333333,11.7164031859294,26.3213460889167,0.00047230926714484,9.44437775964956e-05,5,10.9666666666667,29.9
4.66666666666667,11.7164031859294,26.3213460889167,0.00119159133440225,0.000719282067257411,5,10.9333333333333,29.9
4.7,11.7164031859294,26.3213460889167,0.00175710906454245,0.000565517730140199,5,10.9,29.9
4.73333333333333,11.7164031859294,26.3213460889167,0.00215732652925903,0.000400217464716577,5,10.8666666666667,29.9
4.76666666666667,11.7164031859294,26.3213460889167,0.00239127460183828,0.00023394807257925,5,10.8333333333333,29.9
4.8,11.7164031859294,26.3213460889167,0.00246727568018167,7.60010783433878e-05,5,10.8,29.9
4.83333333333333,11.7164031859294,26.3213460889167,0.00240130091372382,-6.59747664578467e-05,5,10.7666666666667,29.9
4.86666666666667,11.7164031859294,26.3213460889167,0.0022151023390548,-0.000186198574669017,5,10.7333333333333,29.9
4.9,11.7164031859294,26.3213460889167,0.00193425690569982,-0.000280845433354977,5,10.7,29.9
4.93333333333333,11.7164031859294,26.3213460889167,0.00158624652697742,-0.000348010378722404,5,10.6666666666667,29.9
4.96666666666667,11.7164031859294,26.3213460889167,0.00119867980205989,-0.000387566724917526,5,10.6333333333333,29.9
5,11.7164031859294,26.3213460889167,0.000797738801182575,-0.000400941000877319,5,10.6,29.9
5.03333333333333,11.7164031859294,26.3213460889167,0.000406910130820879,-0.000390828670361696,5,10.5666666666667,29.9
5.06666666666667,11.7164031859294,26.3213460889167,4.60351035773528e-05,-0.000360875027243526,5,10.5333333333333,29.9
5.1,11.7164031859294,26.3213460889167,0.000269309291754145,0.000223274188176792,5,10.5,29.9
5.13333333333333,11.7164031859294,26.3213460889167,0.000528107593470307,0.000258798301716162,5,10.4666666666667,29.9
5.16666666666667,11.7164031859294,26.3213460889167,0.000723907543017423,0.000195799949547116,5,10.4333333333333,29.9
5.2,11.7164031859294,26.3213460889167,0.000854565956538142,0.000130658413520719,5,10.4,29.9
5.23333333333333,11.7164031859294,26.3213460889167,0.000921787786656945,6.72218301188025e-05,5,10.3666666666667,29.9
5.26666666666667,11.7164031859294,26.3213460889167,0.000930512522994913,8.72473633796791e-06,5,10.3333333333333,29.9
5.3,11.7164031859294,26.3213460889167,0.000888203387666734,-4.23091353281785e-05,5,10.3,29.9
5.33333333333333,11.7164031859294,26.3213460889167,0.000804092705008093,-8.41106826586407e-05,5,10.2666666666667,29.9
5.36666666666667,11.7164031859294,26.3213460889167,0.000688431958561301,-0.000115660746446793,5,10.2333333333333,29.9
5.4,11.7164031859294,26.3213460889167,0.000551788068111572,-0.000136643890449729,5,10.2,29.9
5.43333333333333,11.7164031859294,26.3213460889167,0.00040441902865155,-0.000147369039460022,5,10.1666666666667,29.9
5.46666666666667,11.7164031859294,26.3213460889167,0.000255752937332898,-0.000148666091318652,5,10.1333333333333,29.9
5.5,11.7164031859294,26.3213460889167,0.000113985223969601,-0.000141767713363296,5,10.1,29.9
5.53333333333333,11.7164031859294,26.3213460889167,1.41998589642602e-05,-9.97853650053409e-05,5,10.0666666666667,29.9
5.56666666666667,11.7164031859294,26.3213460889167,0.000123785298626377,0.000109585439662117,5,10.0333333333333,29.9
5.6,11.7164031859294,26.3213460889167,0.000211463398247609,8.76780996212317e-05,5,10,29.9
5.63333333333333,11.7164031859294,26.3213460889167,0.000275577553865181,6.41141556175722e-05,5,9.96666666666667,29.9
5.66666666666667,11.7164031859294,26.3213460889167,0.000315981120507329,4.04035666421481e-05,5,9.93333333333333,29.9
5.7,11.7164031859294,26.3213460889167,0.000333832945084756,1.78518245774272e-05,5,9.9,29.9
5.73333333333333,11.7164031859294,26.3213460889167,0.000331349909330833,-2.48303575392332e-06,5,9.86666666666667,29.9
5.76666666666667,11.7164031859294,26.3213460889167,0.000311536331612715,-1.98135777181178e-05,5,9.83333333333334,29.9
5.8,11.7164031859294,26.3213460889167,0.000277908531782046,-3.36277998306689e-05,5,9.8,29.9
5.83333333333333,11.7164031859294,26.3213460889167,0.000234230508572777,-4.36780232092697e-05,5,9.76666666666667,29.9
5.86666666666667,11.7164031859294,26.3213460889167,0.000184273765896193,-4.99567426765833e-05,5,9.73333333333333,29.9
5.9,11.7164031859294,26.3213460889167,0.000131611099407691,-5.26626664885025e-05,5,9.7,29.9
5.93333333333333,11.7164031859294,26.3213460889167,7.945084624772e-05,-5.21602531599708e-05,5,9.66666666666667,29.9
5.96666666666667,11.7164031859294,26.3213460889167,3.05149084149556e-05,-4.89359378327644e-05,5,9.63333333333333,29.9
6,11.7164031859294,26.3213460889167,1.3039052670935e-05,-1.74758557440206e-05,5,9.6,29.9
6.03333333333333,11.7164031859294,26.3213460889167,4.96533627547165e-05,3.66143100837815e-05,5,9.56666666666667,29.9
6.06666666666667,11.7164031859294,26.3213460889167,0.000176980588820323,0.000127327226065607,5,9.53333333333333,29.9
6.1,11.7163975190927,26.3220013848637,0.0375744048463497,0.0373974242575294,4,9.5,29.9
6.13333333333333,11.7163793137838,26.3241065519264,0.0886594874132131,0.0510850825668634,4,9.46666666666667,29.9
6.16666666666667,11.71634647086,26.3279036805393,0.139050127142879,0.0503906397296663,4,9.43333333333333,29.9
6.2,11.7162992154884,26.3333649814372,0.188486622310549,0.0494364951676694,4,9.4,29.9
6.23333333333333,11.7162378215064,26.3404554670058,0.236791097566756,0.0483044752562072,4,9.36666666666667,29.9
6.26666666666667,11.716162583445,26.3491357797488,0.283894498916276,0.0471034013495197,4,9.33333333333333,29.9
