Time,x_ego,y_ego,velocity,acceleration,action,x_ped,y_ped
0,11.8,8.9,7,0,1,15.5,29.9
0.0333333333333333,11.8,9.13327037939431,6.99615577953002,-0.00384422046998356,1,15.5,29.9
0.0666666666666667,11.8,9.36640659881126,6.99196947109348,-0.00418630843653833,1,15.5,29.9
0.1,11.8,9.59940075527911,6.98769498718995,-0.00427448390352669,1,15.5,29.9
0.133333333333333,11.8,9.83225378528415,6.9834976545359,-0.00419733265404787,1,15.5,29.9
0.166666666666667,11.8,10.0649678802301,6.97935585456763,-0.00414179996826913,1,15.5,29.9
0.2,11.8,10.2975446186632,6.97525409491249,-0.00410175965514537,1,15.5,29.9
0.233333333333333,11.8,10.5299851399444,6.97118127319767,-0.00407282171482137,1,15.5,29.9
0.266666666666667,11.8,10.7622902687052,6.96712943294736,-0.00405184025031069,1,15.5,29.9
0.3,11.8,10.9944606040335,6.96309287213007,-0.00403656081728965,1,15.5,29.9
0.333333333333333,11.8,11.2264965833863,6.95906750439986,-0.00402536773020401,1,15.5,29.9
0.366666666666667,11.8,11.4583985283897,6.95505040137947,-0.00401710302039238,1,15.5,29.9
0.4,11.8,11.6901666776599,6.95103946463339,-0.00401093674607722,1,15.5,29.9
0.433333333333333,11.8,11.9218012103233,6.94703319054231,-0.00400627409108711,1,15.5,29.9
0.466666666666667,11.8,12.1533022628712,6.94303050173604,-0.00400268880626342,1,15.5,29.9
0.5,11.8,12.3846699412377,6.93903062623031,-0.00399987550573222,1,15.5,29.9
0.533333333333333,11.8,12.6159043294559,6.93503301077307,-0.00399761545723631,1,15.5,29.9
0.566666666666667,11.8,12.8470054958598,6.93103725873891,-0.00399575203416092,1,15.5,29.9
0.6,11.8,13.0779734975296,6.92704308564579,-0.003994173093127,1,15.5,29.9
0.633333333333333,11.8,13.3088083834769,6.92305028732138,-0.00399279832440236,1,15.5,29.9
0.666666666666667,11.8,13.539510196927,6.91905871714157,-0.00399157017981544,1,15.5,29.9
0.7,11.8,13.7700789769551,6.91506826976362,-0.00399044737794529,1,15.5,29.9
0.733333333333333,11.8,14.0005147596581,6.91107886949752,-0.00398940026610006,1,15.5,29.9
0.766666666666667,11.8,14.2308175789948,6.90709046198042,-0.00398840751710594,1,15.5,29.9
0.8,11.8000025022652,14.4609874673857,6.90310301134111,-0.00398745063931027,1,15.5,29.9
0.833333333333333,11.8000181767056,14.6910244560645,6.89911651502002,-0.00398649632109116,1,15.5,29.9
0.866666666666667,11.8000555439151,14.9209285749989,6.89513097731701,-0.00398553770300314,1,15.5,29.9
0.9,11.8001190438879,15.1506998526745,6.89114637811215,-0.0039845992048626,1,15.5,29.9
0.933333333333333,11.8002102324644,15.3803383162117,6.88716268046999,-0.00398369764215989,1,15.5,29.9
0.966666666666667,11.8003288651669,15.6098439918261,6.88317984847858,-0.00398283199141325,1,15.5,29.9
1,11.800473735674,15.8392169053994,6.87919785822361,-0.00398199025496826,1,15.5,29.9
1.03333333333333,11.8006432368362,16.0684570829468,6.87521669929594,-0.00398115892766793,1,15.5,29.9
1.06666666666667,11.8008356804314,16.2975645508908,6.87123637080448,-0.00398032849145746,1,15.5,29.9
1.1,11.8010494457668,16.5265393361552,6.86725687634236,-0.0039794944621212,1,15.5,29.9
1.13333333333333,11.8012830320364,16.7553814661376,6.86327822035925,-0.00397865598310965,1,15.5,29.9
1.16666666666667,11.8015350745594,16.9840909686152,6.85930040645453,-0.00397781390472129,1,15.5,29.9
1.2,11.8018043612289,17.2126678716191,6.85532343708945,-0.00397696936507863,1,15.5,29.9
1.23333333333333,11.8020898617956,17.4411122032978,6.8513473139834,-0.00397612310605044,1,15.5,29.9
1.26666666666667,11.8023907650915,17.6694239917835,6.84737203861654,-0.00397527536686404,1,15.5,29.9
1.3,11.80270651058,17.8976032650756,6.84339761252578,-0.00397442609076304,1,15.5,29.9
1.33333333333333,11.8030368002768,18.1256500509538,6.83942403731719,-0.0039735752085841,1,15.5,29.9
1.36666666666667,11.8033815826402,18.3535643769322,6.83545131447216,-0.00397272284502925,1,15.5,29.9
1.4,11.803741008152,18.5813462702571,6.8314794450839,-0.00397186938826,1,15.5,29.9
1.43333333333333,11.8041153638772,18.808995757945,6.82750842964428,-0.00397101543962464,1,15.5,29.9
1.46666666666667,11.8045049991302,19.0365128668512,6.82353826794706,-0.00397016169721809,1,15.5,29.9
1.5,11.8049102555657,19.2638976237538,6.81956895912093,-0.00396930882613233,1,15.5,29.9
1.53333333333333,11.8053314128111,19.4911500554344,6.8156005017719,-0.00396845734902662,1,15.5,29.9
1.56666666666667,11.8057686562724,19.7182701887431,6.81163289419882,-0.00396760757308279,1,15.5,29.9
1.6,11.8062220684259,19.9452580506357,6.80766613463809,-0.00396675956072912,1,15.5,29.9
1.63333333333333,11.8066916401632,20.1721136681817,6.80370022149098,-0.00396591314710815,1,15.5,29.9
1.66666666666667,11.807177295552,20.3988370685458,6.79973515349078,-0.00396506800020013,1,15.5,29.9
1.7,11.8076789221633,20.6254282789524,6.79577092978163,-0.00396422370915239,1,15.5,29.9
1.73333333333333,11.8081963997593,20.8518873266441,6.7918075499036,-0.00396337987802475,1,15.5,29.9
1.76666666666667,11.8087296221426,21.078214238844,6.78784501370234,-0.00396253620126785,1,15.5,29.9
1.8,11.8092785096044,21.3044090427294,6.78388332119732,-0.00396169250501099,1,15.5,29.9
1.83333333333333,11.8098430119809,21.5304717654201,6.7799224724468,-0.00396084875052605,1,15.5,29.9
1.86666666666667,11.8104231042921,21.7564024339807,6.77596246743941,-0.00396000500738403,1,15.5,29.9
1.9,11.8110187780014,21.9822010754333,6.77200330602959,-0.00395916140982777,1,15.5,29.9
1.93333333333333,11.8116300310898,22.2078677167746,6.76804498791902,-0.0039583181105618,1,15.5,29.9
1.96666666666667,11.8122568595484,22.4334023849932,6.76408751267632,-0.00395747524270718,1,15.5,29.9
2,11.8128992518843,22.6588051070819,6.76013087978037,-0.00395663289594417,1,15.5,29.9
2.03333333333333,11.8135571871186,22.8840759100438,6.75617508867213,-0.0039557911082424,1,15.5,29.9
2.06666666666667,11.8142306358155,23.1092148208911,6.75222013880103,-0.00395494987109668,1,15.5,29.9
2.1,11.8149195630887,23.3342218666394,6.74826602965722,-0.00395410914381245,1,15.5,29.9
2.13333333333333,11.8156239323273,23.559097074299,6.74431276078568,-0.00395326887154024,1,15.5,29.9
2.16666666666667,11.8163437085289,23.7838404708666,6.74036033178362,-0.00395242900206405,1,15.5,29.9
2.2,11.8170788604961,24.0084520833193,6.73640874228583,-0.00395158949778818,1,15.5,29.9
2.23333333333333,11.8178293616116,24.2329319386113,6.73245799194458,-0.00395075034124925,1,15.5,29.9
2.26666666666667,11.8185951893157,24.4572800636755,6.72850808041012,-0.00394991153446078,1,15.5,29.9
2.3,11.8193763237012,24.6814964854261,6.72455900731638,-0.00394907309374126,1,15.5,29.9
2.33333333333333,11.8201727457557,24.9055812307639,6.72061077227404,-0.00394823504233432,1,15.5,29.9
2.36666666666667,11.8209844357504,25.1295343265811,6.71666337487092,-0.00394739740312655,1,15.5,29.9
2.4,11.8218113721247,25.3533557997646,6.71271681467776,-0.00394656019315409,1,15.5,29.9
2.43333333333333,11.8226535310264,25.5770456771983,6.70877109125701,-0.00394572342074984,1,15.5,29.9
2.46666666666667,11.8235108864727,25.8006039857628,6.70482620417161,-0.00394488708539953,1,15.5,29.9
2.5,11.8243834109625,26.0240307523335,6.70088215299188,-0.00394405117973395,1,15.5,29.9
2.53333333333333,11.8252710763019,26.2473260037785,6.69693893729919,-0.00394321569268552,1,15.5,29.9
2.56666666666667,11.8261738544069,26.4704897669556,6.69299655668638,-0.00394238061281005,1,15.5,29.9
2.6,11.8270917179052,26.6935220687104,6.68905501075541,-0.00394154593097795,1,15.5,29.9
2.63333333333333,11.8280246404461,26.9164229358747,6.6851142991135,-0.0039407116419099,1,15.5,29.9
2.66666666666667,11.8289725967122,27.1391923952665,6.68117442136901,-0.0039398777444859,1,15.5,29.9
2.7,11.8299355621988,27.3618304736909,6.67723537712799,-0.00393904424102498,1,15.5,29.9
2.73333333333333,11.8309135128644,27.5843371979405,6.67329716599207,-0.00393821113591919,1,15.5,29.9
2.76666666666667,11.831906424761,27.8067125947976,6.66935978755795,-0.00393737843411124,1,15.5,29.9
2.8,11.8329142737339,28.028956691035,6.66542324141817,-0.00393654613978711,1,15.5,29.9
2.83333333333333,11.8339370352438,28.2510695134168,6.66148752716263,-0.00393571425553496,1,15.5,29.9
2.86666666666667,11.8349746843232,28.4730510886985,6.65755264438057,-0.00393488278206355,1,15.5,29.9
2.9,11.8360271956455,28.6949014436272,6.65361859266214,-0.0039340517184252,1,15.5,29.9
2.93333333333333,11.837094543666,28.9166206049407,6.64968537159958,-0.00393322106256289,1,15.5,29.9
2.96666666666667,11.8381767027835,29.138208599367,6.6457529807876,-0.00393239081198438,1,15.5,29.9
3,11.8392736474817,29.3596654536237,6.6418214198232,-0.00393156096439196,1,15.5,29.9
3.03333333333333,11.8403853524209,29.5809911944175,6.63789068830509,-0.00393073151811674,1,15.5,29.9
3.06666666666667,11.8415117924715,29.8021858484441,6.63396078583278,-0.00392990247230518,1,15.5,29.9
3.1,11.8426529426935,30.0232494423884,6.63003171200591,-0.00392907382686936,1,15.5,29.9
3.13333333333333,11.8438087782805,30.2441820029243,6.62610346642362,-0.00392824558229243,1,15.5,29.9
3.16666666666667,11.8449792744885,30.4649835567156,6.62217604868431,-0.00392741773931604,1,15.5,29.9
3.2,11.8461644065704,30.6856541304158,6.61824945838565,-0.0039265902986596,1,15.5,29.9
3.23333333333333,11.8473641497295,30.9061937506686,6.61432369512484,-0.00392576326080718,1,15.5,29.9
3.26666666666667,11.8485784790992,31.1266024441079,6.61039875849896,-0.00392493662587956,1,15.5,29.9
3.3,11.8498073697474,31.3468802373581,6.6064746481053,-0.00392411039366358,1,15.5,29.9
3.33333333333333,11.8510507966991,31.5670271570334,6.60255136354164,-0.00392328456365032,1,15.5,29.9
3.36666666666667,11.8523087349672,31.7870432297383,6.59862890440645,-0.00392245913519318,1,15.5,29.9
3.4,11.8535811595836,32.006928482067,6.59470727029882,-0.00392163410763402,1,15.5,29.9
3.43333333333333,11.8548680456224,32.2266829406034,6.59078646081843,-0.00392080948039197,1,15.5,29.9
3.46666666666667,11.8561693682115,32.4463066319213,6.58686647556538,-0.00391998525304071,1,15.5,29.9
3.5,11.8574851025331,32.665799582584,6.58294731414006,-0.00391916142532445,1,15.5,29.9
3.53333333333333,11.8588152238152,32.8851618191445,6.57902897614295,-0.0039183379971135,1,15.5,29.9
3.56666666666667,11.860159707318,33.1043933681456,6.57511146117459,-0.00391751496835901,1,15.5,29.9
3.6,11.8615185283195,33.32349425612,6.57119476883556,-0.00391669233903169,1,15.5,29.9
3.63333333333333,11.8628916621041,33.5424645095904,6.56727889872648,-0.00391587010908001,1,15.5,29.9
3.66666666666667,11.8642790839563,33.7613041550693,6.5633638504481,-0.00391504827837696,1,15.5,29.9
3.7,11.8656807691588,33.9800132190593,6.55944962360137,-0.00391422684673337,1,15.5,29.9
3.73333333333333,11.8670966929959,34.1985917280531,6.55553621778748,-0.00391340581388455,1,15.5,29.9
3.76666666666667,11.8685268307591,34.4170397085331,6.55162363260795,-0.00391258517953297,1,15.5,29.9
3.8,11.8699711577537,34.6353571869717,6.54771186766459,-0.00391176494336065,1,15.5,29.9
3.83333333333333,11.8714296493044,34.8535441898314,6.54380092255953,-0.00391094510506207,1,15.5,29.9
3.86666666666667,11.8729022807586,35.0716007435642,6.53989079689517,-0.00391012566435478,1,15.5,29.9
3.9,11.874389027488,35.2895268746122,6.53598149027418,-0.00390930662099453,1,15.5,29.9
3.93333333333333,11.875889864887,35.5073226094075,6.53207300229941,-0.00390848797476373,1,15.5,29.9
3.96666666666667,11.8774047683708,35.7249879743717,6.52816533257395,-0.00390766972546697,1,15.5,29.9
4,11.8789337133725,35.9425229959166,6.52425848070102,-0.00390685187292217,1,15.5,29.9
4.03333333333333,11.8804766753401,36.1599277004438,6.52035244628408,-0.00390603441694459,1,15.5,29.9
4.06666666666667,11.8820336297348,36.377202114345,6.51644722892675,-0.00390521735732996,1,15.5,29.9
4.1,11.8836045520303,36.5943462640016,6.51254282823287,-0.00390440069388021,1,15.5,29.9
4.13333333333333,11.885189417713,36.8113601757853,6.50863924380651,-0.00390358442635907,1,15.5,29.9
4.16666666666667,11.886788202283,37.0282438760573,6.50473647525197,-0.00390276855453475,1,15.5,29.9
4.2,11.8884008812554,37.2449973911692,6.50083452217381,-0.00390195307816388,1,15.5,29.9
4.23333333333333,11.8900274301615,37.4616207474622,6.4969333841768,-0.00390113799700753,1,15.5,29.9
4.26666666666667,11.8916678245496,37.6781139712676,6.49303306086598,-0.0039003233108259,1,15.5,29.9
4.3,11.8933220399858,37.8944770889067,6.48913355184659,-0.00389950901938807,1,15.5,29.9
4.33333333333333,11.8949900520537,38.1107101266906,6.48523485672412,-0.00389869512247198,1,15.5,29.9
4.36666666666667,11.8966718363542,38.3268131109204,6.48133697510426,-0.00389788161985649,1,15.5,29.9
4.4,11.8983673685046,38.5427860678871,6.47743990659293,-0.00389706851132932,1,15.5,29.9
4.43333333333333,11.9000766241385,38.7586290238719,6.47354365079625,-0.00389625579667729,1,15.5,29.9
4.46666666666667,11.9017995789048,38.9743420051455,6.46964820732058,-0.00389544347567838,1,15.5,29.9
4.5,11.9035362084679,39.1899250379691,6.46575357577246,-0.00389463154812031,1,15.5,29.9
4.53333333333333,11.9052864885075,39.4053781485935,6.46185975575867,-0.00389382001378369,1,15.5,29.9
