Time,x_ego,y_ego,velocity,acceleration,action,x_ped,y_ped
0,11.8,15.9,7,0,1,15.5,29.9
0.0333333333333333,11.8000066704774,16.1332703793779,6.99615580151573,-0.00384419848427253,1,15.3694444444444,29.9
0.0666666666666667,11.800048407691,16.3664065981664,6.99196971387884,-0.00418608763688422,1,15.2444444444444,29.9
0.1,11.8001478012749,16.5994007494743,6.98769581632711,-0.00427389755173557,1,15.125,29.9
0.133333333333333,11.8003165652486,16.8322537594843,6.98349939216032,-0.00419642416678911,1,15.0111111111111,29.9
0.166666666666667,11.8005587848045,17.0649678026478,6.9793586371614,-0.00414075499891631,1,14.9027777777778,29.9
0.2,11.8008738256293,17.2975444363615,6.97525786401868,-0.00410077314271984,1,14.8,29.9
0.233333333333333,11.8012585625886,17.529984778047,6.97118584658602,-0.00407201743266494,1,14.7027777777778,29.9
0.266666666666667,11.801708854191,17.7622896324263,6.96713458833914,-0.00405125824688124,1,14.6111111111111,29.9
0.3,11.8022203693586,17.9944595822898,6.96309840492777,-0.00403618341136625,1,14.525,29.9
0.333333333333333,11.8027889600978,18.2264950528392,6.95907325225505,-0.00402515267271841,1,14.4444444444444,29.9
0.366666666666667,11.8034107831265,18.4583963571543,6.95505624530648,-0.00401700694857166,1,14.3694444444444,29.9
0.4,11.8040823315349,18.6901637282765,6.95104531971305,-0.00401092559343486,1,14.3,29.9
0.433333333333333,11.8048004726165,18.921797341812,6.94703899569906,-0.00400632401398049,1,14.2361111111111,29.9
0.466666666666667,11.805562524244,19.1532973318094,6.94303621302955,-0.00400278266951126,1,14.1777777777778,29.9
0.5,11.8063663555286,19.3846638018887,6.93903621418949,-0.00399999884006341,1,14.125,29.9
0.533333333333333,11.8072104745772,19.6158968330651,6.93503846019752,-0.00399775399196844,1,14.0777777777778,29.9
0.566666666666667,11.8080940655535,19.8469964893289,6.93104256889103,-0.00399589130649236,1,14.0361111111111,29.9
0.6,11.8090169521894,20.0779628217451,6.92704826930578,-0.00399429958524422,1,14,29.9
0.633333333333333,11.8099802809656,20.3087958691856,6.92305544854942,-0.00399282075636442,1,13.9694444444444,29.9
0.666666666666667,11.8109881514051,20.5394956543502,6.91906399373958,-0.00399145480983609,1,13.9444444444444,29.9
0.7,11.8120441480177,20.7700621946435,6.91507373817322,-0.00399025556636357,1,13.925,29.9
0.733333333333333,11.8131505478861,21.0004955066971,6.91108455990652,-0.0039891782666972,1,13.9111111111111,29.9
0.766666666666667,11.8143085602573,21.2307956075255,6.9070963716087,-0.00398818829782144,1,13.9027777777778,29.9
0.8,11.8155185863885,21.4609625151107,6.90310911306931,-0.00398725853939297,1,13.9,29.9
0.833333333333333,11.8167804599093,21.6909958852821,6.89910094622898,-0.00400816684033334,1,13.9,29.9
0.866666666666667,11.8180911552135,21.9203187916935,6.860499041623,-0.0386019046059776,3,13.9,29.9
0.9,11.819443413408,22.147518415791,6.77172185554853,-0.0887771860744646,3,13.9,29.9
0.933333333333333,11.8208295020958,22.3712686205168,6.65355096251669,-0.118170893031843,3,13.9,29.9
0.966666666666667,11.8222432779031,22.5907626523834,6.51636809195201,-0.137182870564685,3,13.9,29.9
1,11.8236796510087,22.8055401542327,6.3705756104259,-0.145792481526109,3,13.9,29.9
1.03333333333333,11.8251342323371,23.0153715838125,6.21962059096095,-0.150955019464948,3,13.9,29.9
1.06666666666667,11.8266024439643,23.2200558119626,6.06176110272634,-0.157859488234606,3,13.9,29.9
1.1,11.8280777971805,23.4191036619242,5.88145625905705,-0.180304843669294,3,13.9,29.9
1.13333333333333,11.8295521317601,23.6117953446462,5.68040952261637,-0.201046736440679,3,13.9,29.9
1.16666666666667,11.8310177363511,23.7974398769226,5.4586456626045,-0.221763860011873,3,13.9,29.9
1.2,11.8324709812388,23.9756926052371,5.23691987022357,-0.221725792380925,3,13.9,29.9
1.23333333333333,11.8339096672204,24.1465548094376,5.0152320789174,-0.221687791306175,3,13.9,29.9
1.26666666666667,11.8353303866774,24.3100277950111,4.79358173647379,-0.221650342443604,3,13.9,29.9
1.3,11.8367288334899,24.4661128802735,4.57196811068558,-0.221613625788208,3,13.9,29.9
1.33333333333333,11.8381000988114,24.6148113866458,4.35039056314169,-0.221577547543894,3,13.9,29.9
1.36666666666667,11.8394389181725,24.7561237070683,4.12876830330269,-0.221622259838997,3,13.9,29.9
1.4,11.840739857989,24.89004721485,3.90706023811694,-0.221708065185758,3,13.9,29.9
1.43333333333333,11.8419974964452,25.0165799642209,3.68531296342597,-0.221747274690961,3,13.9,29.9
1.46666666666667,11.8432065459322,25.1357213024465,3.46356016889425,-0.221752794531729,3,13.9,29.9
1.5,11.8443619439412,25.2474714957784,3.24182614235192,-0.221734026542325,3,13.9,29.9
1.53333333333333,11.8454589303792,25.3518314611021,3.02012821078615,-0.221697931565771,3,13.9,29.9
1.56666666666667,11.8464931164862,25.4488025733513,2.79847846779702,-0.221649742989125,3,13.9,29.9
1.6,11.8474605453215,25.5383865272703,2.57688504040331,-0.221593427393714,3,13.9,29.9
1.63333333333333,11.8483577409286,25.620585238198,2.35535306790907,-0.221531972494236,3,13.9,29.9
1.66666666666667,11.849181811342,25.6954010703919,2.13395267711086,-0.221400390798212,3,13.9,29.9
1.7,11.8499309545516,25.7628557727589,1.91404628162217,-0.219906395488689,3,13.9,29.9
1.73333333333333,11.8506053936646,25.8230284896957,1.69714477385836,-0.216901507763814,3,13.9,29.9
1.76666666666667,11.8512066169212,25.8760277971632,1.48367625762202,-0.213468516236343,3,13.9,29.9
1.8,11.8517364906705,25.9219719886501,1.27385191365519,-0.209824343966831,3,13.9,29.9
1.83333333333333,11.8521964588307,25.960984785104,1.06778916007553,-0.206062753579652,3,13.8991319444444,29.9
1.86666666666667,11.8525874773888,25.9931939766264,0.865668458217711,-0.202120701857824,3,13.8965277777778,29.9
1.9,11.8529102027441,26.018735460628,0.667701712253048,-0.197966745964662,3,13.8921875,29.9
1.93333333333333,11.8531650993703,26.0377470425876,0.473857790322078,-0.19384392193097,3,13.8861111111111,29.9
1.96666666666667,11.8533525929639,26.0503679093569,0.284245234314398,-0.18961255600768,3,13.8782986111111,29.9
2,11.8534732170736,26.0567390103594,0.0988714317018594,-0.185373802612539,3,13.86875,29.9
2.03333333333333,11.8535329948547,26.0575697757146,0.00219277655077099,-0.0966786551510884,3,13.8574652777778,29.9
2.06666666666667,11.853570454314,26.0570407531287,0.0159458430082194,0.0137530664574484,5,13.8444444444444,29.9
2.1,11.8535982388206,26.0565118199215,0.00174006533246317,-0.0142057776757562,5,13.8296875,29.9
2.13333333333333,11.8535982388206,26.0565118199215,0.00313311372572453,0.00139304839326136,5,13.8131944444444,29.9
2.16666666666667,11.8535982388206,26.0565118199215,0.00521749980385996,0.00208438607813543,5,13.7949652777778,29.9
2.2,11.8535982388206,26.0565118199215,0.00773652965202839,0.00251902984816844,5,13.775,29.9
2.23333333333333,11.8535982388206,26.0565118199215,0.0103935376983793,0.00265700804635091,5,13.7532986111111,29.9
2.26666666666667,11.8535982388206,26.0565118199215,0.0128888254645844,0.00249528776620509,5,13.7298611111111,29.9
2.3,11.8535982388206,26.0565118199215,0.0149511538696623,0.00206232840507788,5,13.7046875,29.9
2.33333333333333,11.8535982388206,26.0565118199215,0.0163620130975692,0.00141085922790697,5,13.6777777777778,29.9
2.36666666666667,11.8535982388206,26.0565118199215,0.0169717595835318,0.00060974648596258,5,13.6491319444444,29.9
2.4,11.8535982388206,26.0565118199215,0.0167075011618491,-0.000264258421682744,5,13.61875,29.9
2.43333333333333,11.8535982388206,26.0565118199215,0.0155732828034072,-0.00113421835844187,5,13.5866319444444,29.9
2.46666666666667,11.8535982388206,26.0565118199215,0.0136436469291371,-0.00192963587427015,5,13.5527777777778,29.9
2.5,11.8535982388206,26.0565118199215,0.0110519999832695,-0.00259164694586753,5,13.5171875,29.9
2.53333333333333,11.8535982388206,26.0565118199215,0.00797541083392849,-0.00307658914934105,5,13.4798611111111,29.9
2.56666666666667,11.8535982388206,26.0565118199215,0.00461750844095212,-0.00335790239297637,5,13.4407986111111,29.9
2.6,11.8535982388206,26.0565118199215,0.00119105689529192,-0.0034264515456602,5,13.4,29.9
2.63333333333333,11.8535982388206,26.0565118199215,0.00209840773180157,0.000907350836509654,5,13.3574652777778,29.9
2.66666666666667,11.8535982388206,26.0565118199215,0.00506676220681013,0.00296835447500856,5,13.3131944444444,29.9
2.7,11.8535982388206,26.0565118199215,0.00756249759984235,0.00249573539303221,5,13.2671875,29.9
2.73333333333333,11.8535982388206,26.0565118199215,0.00947445847221284,0.00191196087237049,5,13.2194444444444,29.9
2.76666666666667,11.8535982388206,26.0565118199215,0.010735955971009,0.00126149749879613,5,13.1699652777778,29.9
2.8,11.8535982388206,26.0565118199215,0.0113253742494153,0.000589418278406325,5,13.11875,29.9
2.83333333333333,11.8535982388206,26.0565118199215,0.011263625492704,-6.17487567112617e-05,5,13.0657986111111,29.9
2.86666666666667,11.8535982388206,26.0565118199215,0.0106089874671333,-0.000654638025570784,5,13.0111111111111,29.9
2.9,11.8535982388206,26.0565118199215,0.00944997452974802,-0.00115901293738523,5,12.9546875,29.9
2.93333333333333,11.8535982388206,26.0565118199215,0.00789694897809543,-0.00155302555165259,5,12.8965277777778,29.9
2.96666666666667,11.8535982388206,26.0565118199215,0.00607317916302617,-0.00182376981506926,5,12.8366319444444,29.9
3,11.8535982388206,26.0565118199215,0.00410600181901776,-0.00196717734400841,5,12.775,29.9
3.03333333333333,11.8535982388206,26.0565118199215,0.00211865865259285,-0.00198734316642491,5,12.7116319444444,29.9
3.06666666666667,11.8535982388206,26.0565118199215,0.000223262612318576,-0.00189539604027428,5,12.6465277777778,29.9
3.1,11.8535982388206,26.0565118199215,0.0014847810758484,0.00126151846352982,5,12.5796875,29.9
3.13333333333333,11.8535982388206,26.0565118199215,0.00293070917709076,0.00144592810124236,5,12.5111111111111,29.9
3.16666666666667,11.8535982388206,26.0565118199215,0.00406263036699173,0.00113192118990096,5,12.4407986111111,29.9
3.2,11.8535982388206,26.0565118199215,0.00485210855327618,0.000789478186284452,5,12.36875,29.9
3.23333333333333,11.8535982388206,26.0565118199215,0.00529325586512721,0.00044114731185103,5,12.2949652777778,29.9
3.26666666666667,11.8535982388206,26.0565118199215,0.0054005672699798,0.00010731140485259,5,12.2194444444444,29.9
3.3,11.8535982388206,26.0565118199215,0.0052057797766567,-0.000194787493323099,5,12.1421875,29.9
3.33333333333333,11.8535982388206,26.0565118199215,0.00475406548813092,-0.000451714288525774,5,12.0631944444444,29.9
3.36666666666667,11.8535982388206,26.0565118199215,0.0040998709875863,-0.000654194500544619,5,11.9824652777778,29.9
3.4,11.8535982388206,26.0565118199215,0.00330269856230086,-0.000797172425285439,5,11.9,29.9
3.43333333333333,11.8535982388206,26.0565118199215,0.00242309138042026,-0.0008796071818806,5,11.8157986111111,29.9
3.46666666666667,11.8535982388206,26.0565118199215,0.00151903925573824,-0.00090405212468202,5,11.7298611111111,29.9
3.5,11.8535982388206,26.0565118199215,0.000642968561625534,-0.00087607069411271,5,11.6421875,29.9
3.53333333333333,11.8535982388206,26.0565118199215,0.00016057645346071,-0.000482392108164824,5,11.5527777777778,29.9
3.56666666666667,11.8535982388206,26.0565118199215,0.000856509277171322,0.000695932823710612,5,11.4616319444444,29.9
3.6,11.8535982388206,26.0565118199215,0.00142003348232272,0.000563524205151401,5,11.36875,29.9
3.63333333333333,11.8535982388206,26.0565118199215,0.00183677636301025,0.000416742880687523,5,11.2741319444444,29.9
3.66666666666667,11.8535982388206,26.0565118199215,0.00210230454112163,0.000265528178111389,5,11.1777777777778,29.9
3.7,11.8535982388206,26.0565118199215,0.00222112869145997,0.000118824150338339,5,11.0796875,29.9
3.73333333333333,11.8535982388206,26.0565118199215,0.00220532101213047,-1.58076793295016e-05,5,10.9798611111111,29.9
3.76666666666667,11.8535982388206,26.0565118199215,0.00207287590401274,-0.000132445108117731,5,10.8782986111111,29.9
3.8,11.8535982388206,26.0565118199215,0.00184594241123212,-0.000226933492780623,5,10.775,29.9
3.83333333333333,11.8535982388206,26.0565118199215,0.00154904761996157,-0.000296894791270549,5,10.6699652777778,29.9
3.86666666666667,11.8535982388206,26.0565118199215,0.00120741499666989,-0.000341632623291683,5,10.5631944444444,29.9
3.9,11.8535982388206,26.0565118199215,0.000845462288243626,-0.000361952708426259,5,10.4546875,29.9
3.93333333333333,11.8535982388206,26.0565118199215,0.000485541837147051,-0.000359920451096575,5,10.3444444444444,29.9
3.96666666666667,11.8535982388206,26.0565118199215,0.000146963621515358,-0.000338578215631694,5,10.2324652777778,29.9
4,11.8535982388206,26.0565118199215,0.000154680532524289,7.71691100893176e-06,5,10.11875,29.9
4.03333333333333,11.8535982388206,26.0565118199215,0.000407893091018705,0.000253212558494416,5,10.0032986111111,29.9
4.06666666666667,11.8535982388206,26.0565118199215,0.000605365984539426,0.000197472893520721,5,9.88611111111111,29.9
4.1,11.8535982388206,26.0565118199215,0.000743827203200747,0.000138461218661321,5,9.7671875,29.9
4.13333333333333,11.8535982388206,26.0565118199215,0.000823681138719143,7.9853935518396e-05,5,9.64652777777778,29.9
4.16666666666667,11.8535982388206,26.0565118199215,0.000848491094641592,2.4809955922449e-05,5,9.52413194444444,29.9
4.2,11.8535982388206,26.0565118199215,0.00082435482230806,-2.41362723335328e-05,5,9.4,29.9
4.23333333333333,11.8535982388206,26.0565118199215,0.000759223085515559,-6.51317367925008e-05,5,9.27413194444444,29.9
4.26666666666667,11.8535982388206,26.0565118199215,0.000662207623199069,-9.70154623164894e-05,5,9.14652777777778,29.9
4.3,11.8535982388206,26.0565118199215,0.000542919070301464,-0.000119288552897606,5,9.0171875,29.9
4.33333333333333,11.8535982388206,26.0565118199215,0.000410868058338312,-0.000132051011963152,5,8.88611111111111,29.9
4.36666666666667,11.8535982388206,26.0565118199215,0.000274954492800976,-0.000135913565537336,5,8.75329861111111,29.9
4.4,11.8535982388206,26.0565118199215,0.000143061498262531,-0.000131892994538445,5,8.61875,29.9
4.43333333333333,11.8535982388206,26.0565118199215,2.17622676236091e-05,-0.000121299230638922,5,8.48246527777778,29.9
4.46666666666667,11.8535982388206,26.0565118199215,8.38595082814438e-05,6.20972406578347e-05,5,8.34444444444444,29.9
4.5,11.8535982388206,26.0565118199215,0.000170281482367591,8.64219740861477e-05,5,8.2046875,29.9
4.53333333333333,11.8535982388206,26.0565118199215,0.00023551788227029,6.52363999026988e-05,5,8.06319444444444,29.9
4.56666666666667,11.8535982388206,26.0565118199215,0.000180400701404292,-5.51171808659979e-05,5,7.91996527777778,29.9
4.6,11.8536039084991,26.0571199000337,0.0344253430217524,0.0342449423203481,4,7.775,29.9
4.63333333333333,11.8536225637889,26.0591205674654,0.0855365960922399,0.0511112530704875,4,7.62829861111111,29.9
4.66666666666667,11.8536570301803,26.0628144400366,0.13597400665148,0.05043741055924,4,7.47986111111111,29.9
4.7,11.8537071166387,26.0681743079982,0.185471976243817,0.0494979695923372,4,7.3296875,29.9
4.73333333333333,11.8537726211699,26.0751655800731,0.233847827564032,0.0483758513202154,4,7.17777777777778,29.9
4.76666666666667,11.8538533723868,26.0837490828206,0.28102362098546,0.047175793421428,4,7.02413194444444,29.9
4.8,11.8539492832095,26.0938855630891,0.327050813373131,0.0460271923876704,4,6.86875,29.9
4.83333333333333,11.8540603772245,26.1055377245097,0.371983539368493,0.0449327259953622,4,6.71163194444444,29.9
4.86666666666667,11.8541867882515,26.118669908968,0.415865307712896,0.0438817683444032,4,6.55277777777778,29.9
4.9,11.8543287546549,26.1332477802296,0.458732182397756,0.0428668746848601,4,6.3921875,29.9
4.93333333333333,11.8544866080239,26.1492379972621,0.500604240253246,0.04187205785549,4,6.22986111111111,29.9
4.96666666666667,11.8546607651322,26.1666073845363,0.541477468471876,0.0408732282186295,4,6.06579861111111,29.9
5,11.8548517664694,26.1853226514016,0.581353092386879,0.039875623915003,4,5.9,29.9
5.03333333333333,11.8550602902895,26.2053506336515,0.620239037472064,0.0388859450851853,4,5.9,29.9
5.06666666666667,11.8552871464169,26.2266584864228,0.658147784121675,0.0379087466496111,4,5.9,29.9
5.1,11.8555332599977,26.2492138267322,0.695096310584176,0.0369485264625012,4,5.9,29.9
5.13333333333333,11.85579963182,26.2729852163887,0.731130076010816,0.0360337654266393,4,5.9,29.9
5.16666666666667,11.8560872113362,26.2979431957548,0.766313426359919,0.0351833503491035,4,5.9,29.9
5.2,11.8563967903843,26.3240602890852,0.800699204110137,0.0343857777502182,4,5.9,29.9
5.23333333333333,11.8567288548302,26.3513106298708,0.83433027911511,0.0336310750049723,4,5.9,29.9
5.26666666666667,11.8570836032737,26.3796696730746,0.867242186117951,0.0329119070028413,4,5.9,29.9
5.3,11.8574608458019,26.4091139809388,0.899465053526232,0.0322228674082811,4,5.9,29.9
5.33333333333333,11.8578601022465,26.4396209910505,0.931016103639672,0.0315510501134401,4,5.9,29.9
5.36666666666667,11.8582806392105,26.4711679804108,0.961868258978543,0.0308521553388713,4,5.9,29.9
5.4,11.8587214866415,26.503731275254,0.992008013755974,0.0301397547774301,4,5.9,29.9
5.43333333333333,11.859181500702,26.5372889900627,1.02158969546005,0.0295816817040718,4,5.9,29.9
5.46666666666667,11.8596594889031,26.5718289025952,1.05104105651284,0.0294513610527953,4,5.9,29.9
5.5,11.8601543655016,26.6073581777284,1.08111333416792,0.0300722776550766,4,5.9,29.9
5.53333333333333,11.8606653387025,26.643915134255,1.11291881101152,0.0318054768436038,4,5.9,29.9
5.56666666666667,11.8611920974205,26.6815799109459,1.147828435895,0.0349096248834746,4,5.9,29.9
5.6,11.8617349512017,26.7204796518605,1.18723373909069,0.0394053031956925,4,5.9,29.9
5.63333333333333,11.862294865778,26.7607830112186,1.23219339726617,0.0449596581754803,4,5.9,29.9
5.66666666666667,11.8628734233754,26.8026874653372,1.28339801800606,0.0512046207398915,4,5.9,29.9
5.7,11.8634728002106,26.8464089725279,1.3412751903102,0.0578771723041369,4,5.9,29.9
5.73333333333333,11.8640957528571,26.8921736216684,1.40600614381223,0.0647309535020306,4,5.9,29.9
5.76666666666667,11.8647455873436,26.9402093336414,1.47751340180771,0.071507257995479,4,5.9,29.9
5.8,11.8654260997197,26.9907372597912,1.55548934013455,0.0779759383268428,4,5.9,29.9
5.83333333333333,11.8661415135944,27.0439659942383,1.63949282851128,0.0840034883767278,4,5.9,29.9
5.86666666666667,11.8668963938155,27.100087214723,1.72894541305951,0.0894525845482317,4,5.9,29.9
5.9,11.8676955042539,27.1592701460738,1.82307646051205,0.0941310474525408,4,5.9,29.9
5.93333333333333,11.868543630143,27.2216567502942,1.92105262546396,0.0979761649519126,4,5.9,29.9
5.96666666666667,11.8694454168209,27.2873617877812,2.02208218145929,0.101029555995326,4,5.9,29.9
6,11.8704052064057,27.3564747325126,2.12544117367366,0.103358992214371,4,5.9,29.9
6.03333333333333,11.8714268769898,27.4290621332938,2.23047845223343,0.105037278559771,4,5.9,29.9
6.06666666666667,11.8725137045121,27.5051701318856,2.3366213576362,0.106142905402771,4,5.9,29.9
6.1,11.8736682739877,27.5848274450659,2.44341291978801,0.10679156215181,4,5.9,29.9
6.13333333333333,11.8748924812418,27.6680507395265,2.55057797377034,0.10716505398233,4,5.9,29.9
6.16666666666667,11.8761875644614,27.754848745245,2.6578983946039,0.107320420833557,4,5.9,29.9
6.2,11.8775541322799,27.8452233788836,2.76518550565414,0.107287111050246,4,5.9,29.9
6.23333333333333,11.8789923465211,27.9391709992225,2.87229651215269,0.107111006498546,4,5.9,29.9
6.26666666666667,11.8805021755712,28.0366839576068,2.97913065450036,0.106834142347674,4,5.9,29.9
6.3,11.8820836283222,28.1377515989746,3.08559864062424,0.106467986123879,4,5.9,29.9
6.33333333333333,11.8837369191012,28.2423592900197,3.1915469787764,0.105948338152158,4,5.9,29.9
6.36666666666667,11.885462566622,28.3504872604342,3.29683982338557,0.10529284460917,4,5.9,29.9
6.4,11.8872614578684,28.4621120515403,3.40138802334581,0.104548199960242,4,5.9,29.9
6.43333333333333,11.8891348494894,28.5772077557858,3.50513287439928,0.103744851053462,4,5.9,29.9
6.46666666666667,11.8910843211211,28.6957469793151,3.60804402690145,0.102911152502171,4,5.9,29.9
