Time,x_ego,y_ego,velocity,acceleration,action,x_ped,y_ped
0,11.8,15.9,7,0,1,15.5,29.9
0.0333333333333333,11.7999983534839,16.1332703793933,6.99615578086957,-0.00384421913043465,1,15.5,29.9
0.0666666666666667,11.7999880512244,16.366406598772,6.99196948588594,-0.00418629498362311,1,15.5,29.9
0.1,11.7999635172824,16.5994007549254,6.98769503770773,-0.00427444817820799,1,15.5,29.9
0.133333333333333,11.7999218602188,16.8322537837122,6.98349776040608,-0.00419727730165143,1,15.5,29.9
0.166666666666667,11.7998628720732,17.0649678755621,6.97935600975125,-0.00414175065482958,1,15.5,29.9
0.2,11.7997901177347,17.297544608192,6.97525427130008,-0.00410173845116901,1,15.5,29.9
0.233333333333333,11.7997070818207,17.5299851205327,6.97118144824192,-0.00407282305816015,1,15.5,29.9
0.266666666666667,11.7996161948422,17.7622902371351,6.96712959447358,-0.00405185376834893,1,15.5,29.9
0.3,11.7995191470303,17.993825837493,6.92501059617999,-0.0421189982935806,3,15.5,29.9
0.333333333333333,11.7994170973371,18.223784806458,6.87253167778936,-0.0524789183906345,3,15.5,29.9
0.366666666666667,11.7993108055656,18.4517640307549,6.80622615256251,-0.0663055252268476,3,15.5,29.9
0.4,11.7992008726844,18.6773603970611,6.72956060929369,-0.0766655432688177,3,15.5,29.9
0.433333333333333,11.7990878130642,18.9002285793753,6.64253582326601,-0.0870247860276798,3,15.5,29.9
0.466666666666667,11.7989720713172,19.1200806864463,6.5485971441526,-0.0939386791134185,3,15.5,29.9
0.5,11.7988539602453,19.3368017984949,6.45467751110587,-0.0939196330467258,3,15.5,29.9
0.533333333333333,11.7987336232444,19.5504503125449,6.36424300720758,-0.0904345038982859,3,15.5,29.9
0.566666666666667,11.7986110783621,19.7610846191383,6.27382710258899,-0.0904159046185997,3,15.5,29.9
0.6,11.798486251023,19.9687053348733,6.18342954102135,-0.0903975615676318,3,15.5,29.9
0.633333333333333,11.7983589874795,20.1733130735273,6.09305004673536,-0.0903794942859886,3,15.5,29.9
0.666666666666667,11.7982291347318,20.3748506775887,5.9992223673312,-0.0938276794041695,3,15.5,29.9
0.7,11.7980966151723,20.5731745242215,5.90022466281451,-0.0989977045166839,3,15.5,29.9
0.733333333333333,11.7979614823475,20.7680548987439,5.79261334588899,-0.107611316925524,3,15.5,29.9
0.766666666666667,11.7978239276637,20.9592330491301,5.67808991222972,-0.114523433659267,3,15.5,29.9
0.8,11.79768426071,21.1464789579218,5.55667727117168,-0.12141264105804,3,15.5,29.9
0.833333333333333,11.797542860654,21.3296491102844,5.4335428910931,-0.123134380078585,3,15.5,29.9
0.866666666666667,11.7974001245403,21.5087151852333,5.31043119718902,-0.123111693904074,3,15.5,29.9
0.9,11.7972564192336,21.6837644066643,5.19253052925392,-0.117900667935099,3,15.5,29.9
0.933333333333333,11.7971120527013,21.8549704604394,5.07984037444848,-0.112690154805447,3,15.5,29.9
0.966666666666667,11.7969672710374,22.0225360781179,4.97410396108312,-0.105736413365353,3,15.5,29.9
1,11.7968222541594,22.1866639627165,4.87357636734644,-0.100527593736682,3,15.5,29.9
1.03333333333333,11.7966771268809,22.3475277206448,4.77825666359636,-0.0953197037500786,3,15.5,29.9
1.06666666666667,11.7965319653829,22.5052722248463,4.68642174867569,-0.0918349149206774,3,15.5,29.9
1.1,11.7963867923102,22.6600412774792,4.59970178494503,-0.0867199637306566,3,15.5,29.9
1.13333333333333,11.7962415321954,22.8120616256032,4.52150921787767,-0.0781925670673553,3,15.5,29.9
1.16666666666667,11.7960959534226,22.961733457266,4.45879791909169,-0.0627112987859819,3,15.5,29.9
1.2,11.7959497146816,23.1095733346758,4.41159724689093,-0.0472006722007627,3,15.5,29.9
1.23333333333333,11.7958025239233,23.256012153168,4.37473850564785,-0.0368587412430808,3,15.5,29.9
1.26666666666667,11.7956540922323,23.4014526434414,4.35170083680555,-0.0230376688422931,3,15.5,29.9
1.3,11.7955039853988,23.5464421179487,4.34768022584656,-0.00402061095899331,1,15.5,29.9
1.33333333333333,11.795351930998,23.6912977242642,4.34367139203909,-0.00400883380747441,1,15.5,29.9
1.36666666666667,11.7951973835568,23.8360195455208,4.33965571511385,-0.00401567692524196,1,15.5,29.9
1.4,11.7950379948288,23.9806073929416,4.33563539369982,-0.00402032141402486,1,15.5,29.9
1.43333333333333,11.794871661622,24.1250611445222,4.33161193512399,-0.00402345857582809,1,15.5,29.9
1.46666666666667,11.7946965601214,24.269380726142,4.32758641181241,-0.00402552331157935,1,15.5,29.9
1.5,11.7945097184776,24.4135660966005,4.32355962982704,-0.00402678198536854,1,15.5,29.9
1.53333333333333,11.7943085023793,24.5576172391619,4.31953225708028,-0.00402737274675946,1,15.5,29.9
1.56666666666667,11.7940897837768,24.7015341536544,4.31550489157582,-0.00402736550446381,1,15.5,29.9
1.6,11.7938517126199,24.8453168531976,4.31147806028991,-0.00402683128591175,1,15.5,29.9
1.63333333333333,11.7935939907514,24.9889653611465,4.3074522259662,-0.00402583432371273,1,15.5,29.9
1.66666666666667,11.7933174924389,25.1324797084948,4.30342776241394,-0.00402446355225639,1,15.5,29.9
1.7,11.793023872325,25.2758599319747,4.29940492803105,-0.00402283438288542,1,15.5,29.9
1.73333333333333,11.7927152077109,25.4191060726129,4.29538385020557,-0.00402107782548189,1,15.5,29.9
1.76666666666667,11.7923937008625,25.5622181745792,4.29136452908408,-0.00401932112149073,1,15.5,29.9
1.8,11.7920614501774,25.7051962860398,4.28734711560512,-0.00401741347896589,1,15.5,29.9
1.83333333333333,11.791720288016,25.8480405126762,4.28333559886012,-0.00401151674499456,1,15.5,29.9
1.86666666666667,11.7913716775623,25.9907512112139,4.27934020535457,-0.00399539350554967,1,15.5,29.9
1.9,11.7910166602461,26.1333291325923,4.27537333055619,-0.0039668747983832,1,15.5,29.9
1.93333333333333,11.790655846011,26.275775432846,4.27144631586599,-0.0039270146901984,1,15.5,29.9
1.96666666666667,11.7902894397132,26.4180916119895,4.26756837120571,-0.00387794466027813,1,15.5,29.9
2,11.789917297324,26.5602794441694,4.26374693297498,-0.00382143823073555,1,15.5,29.9
2.03333333333333,11.7895390049357,26.702340924677,4.25998804745736,-0.00375888551762138,1,15.5,29.9
2.06666666666667,11.7891539721595,26.8442782180348,4.25629596868966,-0.00369207876769106,1,15.5,29.9
2.1,11.7887615300524,26.986093581491,4.25265767860728,-0.00363829008238881,1,15.5,29.9
2.13333333333333,11.7883609889427,27.1278052220817,4.25092673286258,-0.00173094574469435,1,15.5,29.9
2.16666666666667,11.7879514255342,27.2695782974142,4.25712116249282,0.00619442963023609,1,15.5,29.9
2.2,11.7875316942546,27.4117274826852,4.2736058537852,0.0164846912923835,1,15.5,29.9
2.23333333333333,11.7871006783473,27.554597016672,4.30024428382229,0.0266384300370879,4,15.5,29.9
2.26666666666667,11.7866573756902,27.6985129787954,4.33622439091488,0.035980107092592,4,15.5,29.9
2.3,11.7862009014349,27.8437685476887,4.38041959932744,0.0441952084125585,4,15.5,29.9
2.33333333333333,11.7857304676097,27.9906170221167,4.43160486364923,0.0511852643217878,4,15.5,29.9
2.36666666666667,11.7852453459449,28.139272557255,4.48867336630118,0.057068502651954,4,15.5,29.9
2.4,11.7847448304645,28.2899141020304,4.55060191539239,0.0619285490912045,4,15.5,29.9
2.43333333333333,11.7842282174859,28.442687243571,4.61642047376747,0.065818558375085,4,15.5,29.9
2.46666666666667,11.7836947962037,28.597707354617,4.6852992719674,0.0688787981999335,4,15.5,29.9
2.5,11.7831438474382,28.755064307696,4.756518126876,0.0712188549085919,4,15.5,29.9
2.53333333333333,11.7825746594206,28.9148241321582,4.82934800573956,0.0728298788635637,4,15.5,29.9
2.56666666666667,11.7819865549717,29.0770282201251,4.90306727335549,0.0737192676159282,4,15.5,29.9
2.6,11.7813789086161,29.241695995812,4.97708404169653,0.0740167683410391,4,15.5,29.9
2.63333333333333,11.7807511549627,29.4088290208538,5.05090742702905,0.0738233853325205,4,15.5,29.9
2.66666666666667,11.7801027932881,29.5784140581105,5.12416411898481,0.0732566919557582,4,15.5,29.9
2.7,11.7794333747254,29.7504293209559,5.19671115483852,0.0725470358537139,4,15.5,29.9
2.73333333333333,11.7787424857674,29.9248496845346,5.26844974643272,0.0717385915941966,4,15.5,29.9
2.76666666666667,11.7780297455954,30.1016462044467,5.33926760996041,0.0708178635276981,4,15.5,29.9
2.8,11.7772947997784,30.2807863603758,5.40905323483234,0.0697856248719271,4,15.5,29.9
2.83333333333333,11.7765373138942,30.4622344915817,5.47774116485952,0.0686879300271741,4,15.5,29.9
2.86666666666667,11.7757569669853,30.6459527744538,5.54525633399316,0.067515169133646,4,15.5,29.9
2.9,11.7749534486405,30.8319016981038,5.61159068643144,0.0663343524382825,4,15.5,29.9
2.93333333333333,11.7741264502018,31.0200425870506,5.67678645919996,0.0651957727685168,4,15.5,29.9
2.96666666666667,11.7732756638319,31.2103381062159,5.74088050622191,0.0640940470219462,4,15.5,29.9
3,11.7724007839375,31.4027521516456,5.80391053034839,0.0630300241264825,4,15.5,29.9
3.03333333333333,11.7715015074817,31.5972499235126,5.86591690258733,0.0620063722389421,4,15.5,29.9
3.06666666666667,11.7705775335787,31.7937979875843,5.92693969825829,0.0610227956709615,4,15.5,29.9
3.1,11.7696285639076,31.9923639563091,5.98698866946903,0.0600489712107333,4,15.5,29.9
3.13333333333333,11.7686543150153,32.1929132589326,6.04591406122988,0.0589253917608543,4,15.5,29.9
3.16666666666667,11.7676545300501,32.3954062793559,6.10361163451413,0.0576975732842477,4,15.5,29.9
3.2,11.7666289638257,32.5998019883133,6.16008695260803,0.0564753180939066,4,15.5,29.9
3.23333333333333,11.7655773724707,32.8060604102747,6.2153904031065,0.055303450498462,4,15.5,29.9
3.26666666666667,11.7644995096879,33.014143538105,6.26958646171131,0.054196058604818,4,15.5,29.9
3.3,11.7633951262085,33.2240155449466,6.32274009767101,0.053153635959692,4,15.5,29.9
3.33333333333333,11.7622639706679,33.4356426942063,6.37491138396236,0.0521712862913546,4,15.5,29.9
3.36666666666667,11.7611057911215,33.6489930978051,6.42613785379122,0.0512264698288565,4,15.5,29.9
3.4,11.7599203526273,33.8640331495573,6.47626437410218,0.0501265203109655,4,15.5,29.9
3.43333333333333,11.7587074551171,34.0807240717848,6.52519662729136,0.0489322531891734,4,15.5,29.9
3.46666666666667,11.7574669120215,34.2990265168783,6.57297708382936,0.0477804565380033,4,15.5,29.9
3.5,11.7561985349327,34.5189036408203,6.61970360088237,0.0467265170530116,4,15.5,29.9
3.53333333333333,11.754902127424,34.7403221407535,6.66548574333179,0.0457821424494229,4,15.5,29.9
3.56666666666667,11.7535768429413,34.9633721797081,6.72071986488773,0.0552341215559329,4,15.5,29.9
3.6,11.7522198794215,35.188503453754,6.78882891860225,0.0681090537145197,4,15.5,29.9
3.63333333333333,11.7508291617657,35.4160135390595,6.86254379673173,0.0737148781294792,4,15.5,29.9
3.66666666666667,11.7494035596269,35.6460122605006,6.93763540377558,0.0750916070438512,4,15.5,29.9
3.7,11.7479424836024,35.8785021639219,7.01174133210569,0.0741059283301118,4,15.5,29.9
3.73333333333333,11.7464456419591,36.1134275064481,7.08363978411383,0.0718984520081367,4,15.5,29.9
3.76666666666667,11.7449128902262,36.3507050128528,7.1528465506835,0.0692067665696703,4,15.5,29.9
3.8,11.7433441373647,36.5902433710171,7.21931819910597,0.0664716484224774,4,15.5,29.9
3.83333333333333,11.7417392963953,36.8319539423275,7.28323038705076,0.0639121879447879,4,15.5,29.9
3.86666666666667,11.7400982636706,37.0757556847469,7.34484716817312,0.061616781122356,4,15.5,29.9
3.9,11.7384209130914,37.3215768075909,7.40445201233863,0.0596048441655102,4,15.5,29.9
3.93333333333333,11.7367070962209,37.5693548183576,7.46231572773873,0.0578637154001029,4,15.5,29.9
3.96666666666667,11.7349566439817,37.8190358158175,7.51868150077986,0.056365773041132,4,15.5,29.9
4,11.7331693684808,38.07057342469,7.5737555195157,0.0550740187358389,4,15.5,29.9
4.03333333333333,11.7313450660296,38.3239273790006,7.62769921056848,0.0539436910527797,4,15.5,29.9
4.06666666666667,11.7294835215386,38.5790618978002,7.68060983637322,0.0529106258047358,4,15.5,29.9
4.1,11.727584519846,38.835943173954,7.7325271553856,0.0519173190123832,4,15.5,29.9
4.13333333333333,11.7256478427758,39.0945392003261,7.78352676913928,0.0509996137536826,4,15.5,29.9
4.16666666666667,11.723673254804,39.3548214074752,7.83373288150027,0.0502061123609838,4,15.5,29.9
