Time,x_ego,y_ego,velocity,acceleration,action,x_ped,y_ped
0,11.8,8.9,5,0,1,15.5,29.9
0.0333333333333333,11.7999921519291,9.06660768882107,4.99642265890348,-0.0035773410965243,1,15.5,29.9
0.0666666666666667,11.7999418042967,9.23309265217376,4.99264810498951,-0.00377455391396442,1,15.5,29.9
0.1,11.7998184306135,9.39944928798519,4.98873334113689,-0.00391476385262024,1,15.5,29.9
0.133333333333333,11.799602192016,9.5656735825359,4.98471902148236,-0.00401431965453103,1,15.5,29.9
0.166666666666667,11.7992840971336,9.73176265439746,4.98063380891172,-0.00408521257064365,1,15.5,29.9
0.2,11.7988639059087,9.89771443294887,4.97649786103014,-0.00413594788157567,1,15.5,29.9
0.233333333333333,11.7983473377052,10.0635274331943,4.9723254525041,-0.00417240852603928,1,15.5,29.9
0.266666666666667,11.7977436426696,10.2292005972908,4.96812683316327,-0.00419861934083343,1,15.5,29.9
0.3,11.7970637077877,10.3947331811887,4.96390947522497,-0.0042173579382947,1,15.5,29.9
0.333333333333333,11.7963187004932,10.5601246716637,4.95967888723544,-0.00423058798952969,1,15.5,29.9
0.366666666666667,11.7955197371189,10.7253747254829,4.95543900681082,-0.00423988042462575,1,15.5,29.9
0.4,11.7946786938162,10.8904831265436,4.95119279691525,-0.00424620989556956,1,15.5,29.9
0.433333333333333,11.7938060910624,11.0554497482206,4.94694246801396,-0.00425032890129096,1,15.5,29.9
0.466666666666667,11.7929123144098,11.220274530564,4.94268958076826,-0.00425288724569306,1,15.5,29.9
0.5,11.792007211954,11.3849574609513,4.93843535511911,-0.00425422564915579,1,15.5,29.9
0.533333333333333,11.7910994024078,11.5494985581179,4.93418074318515,-0.00425461193395993,1,15.5,29.9
0.566666666666667,11.7901951502627,11.7138978574888,4.92992656647243,-0.00425417671271511,1,15.5,29.9
0.6,11.7892962499519,11.8781553944623,4.9256734386093,-0.0042531278631337,1,15.5,29.9
0.633333333333333,11.7884005578863,12.0422711983793,4.92142169562946,-0.00425174297984299,1,15.5,29.9
0.666666666666667,11.7875033221316,12.2062452924029,4.91717149650444,-0.00425019912501678,1,15.5,29.9
0.7,11.7865984556751,12.3700776956456,4.9129229043158,-0.00424859218864171,1,15.5,29.9
0.733333333333333,11.7856796139365,12.5337684261026,4.90867593698309,-0.00424696733270746,1,15.5,29.9
0.766666666666667,11.7847409981108,12.6973175034183,4.90443059173689,-0.00424534524619791,1,15.5,29.9
0.8,11.7837778623074,12.8607249509739,4.9001868541085,-0.00424373762838837,1,15.5,29.9
0.833333333333333,11.7827867473679,13.0239907971366,4.89594470140588,-0.00424215270262884,1,15.5,29.9
0.866666666666667,11.7817654939311,13.1871150757296,4.89170410626797,-0.00424059513790098,1,15.5,29.9
0.9,11.7807131011707,13.3500978258863,4.88746504152246,-0.00423906474551483,1,15.5,29.9
0.933333333333333,11.779629497744,13.5129390914779,4.88322748511622,-0.00423755640623558,1,15.5,29.9
0.966666666666667,11.7785152816901,13.6756389202899,4.87899142349398,-0.00423606162223944,1,15.5,29.9
1,11.777371470837,13.8381973630899,4.87475685261397,-0.00423457088001911,1,15.5,29.9
1.03333333333333,11.7761992889305,14.0006144726931,4.87052377682027,-0.00423307579369681,1,15.5,29.9
1.06666666666667,11.7749999984153,14.162890303099,4.866292206427,-0.00423157039326671,1,15.5,29.9
1.1,11.7737747803913,14.3250249087408,4.86206215497262,-0.00423005145438715,1,15.5,29.9
1.13333333333333,11.7725246562437,14.4870183438707,4.85783363684206,-0.00422851813055658,1,15.5,29.9
1.16666666666667,11.7712504431784,14.6488706620874,4.8536066655775,-0.00422697126455862,1,15.5,29.9
1.2,11.7699527361962,14.8105819160049,4.84938125288804,-0.00422541268946386,1,15.5,29.9
1.23333333333333,11.768631910527,14.9721521570591,4.84515740819825,-0.00422384468978265,1,15.5,29.9
1.26666666666667,11.7672881400957,15.1335814354468,4.84093513853424,-0.00422226966401418,1,15.5,29.9
1.3,11.765921428521,15.2948698001859,4.83671444858477,-0.00422068994946923,1,15.5,29.9
1.33333333333333,11.7645316492827,15.4560172992837,4.83249534084366,-0.00421910774111023,1,15.5,29.9
1.36666666666667,11.7631185912444,15.6170239799866,4.82827781580092,-0.00421752504274231,1,15.5,29.9
1.4,11.7616820051485,15.7778898890793,4.82406187218854,-0.00421594361237698,1,15.5,29.9
1.43333333333333,11.7602216464488,15.9386150731963,4.81984750729819,-0.00421436489034921,1,15.5,29.9
1.46666666666667,11.7587373102405,16.0991995791043,4.81563471737828,-0.00421278991990981,1,15.5,29.9
1.5,11.7572288551533,16.2596434539239,4.81142349809546,-0.00421121928282364,1,15.5,29.9
1.53333333333333,11.7556962147419,16.4199467452673,4.80721384502044,-0.0042096530750193,1,15.5,29.9
1.56666666666667,11.7541393967972,16.5801095012837,4.80300575408003,-0.00420809094041097,1,15.5,29.9
1.6,11.752558472729,16.7401317706199,4.79879922191315,-0.0042065321668785,1,15.5,29.9
1.63333333333333,11.7509535603935,16.900013602316,4.79459424608183,-0.00420497583132295,1,15.5,29.9
1.66666666666667,11.7493248042412,17.0597550456647,4.79039082511515,-0.00420342096668058,1,15.5,29.9
1.7,11.7476723564228,17.2193561500623,4.78618895839752,-0.00420186671762224,1,15.5,29.9
1.73333333333333,11.7459963616406,17.3788169648796,4.78198864594216,-0.00420031245536645,1,15.5,29.9
1.76666666666667,11.7442969473177,17.5381375393677,4.77778988810837,-0.00419875783378565,1,15.5,29.9
1.8,11.7425742193762,17.6973179226084,4.77359268532391,-0.00419720278446167,1,15.5,29.9
1.83333333333333,11.7408282628369,17.8563581635057,4.76939703786175,-0.00419564746216317,1,15.5,29.9
1.86666666666667,11.7390591457481,18.0152583108085,4.76520294570069,-0.00419409216105571,1,15.5,29.9
1.9,11.7372669247028,18.1740184131515,4.76101040847636,-0.00419253722433144,1,15.5,29.9
1.93333333333333,11.7354516503666,18.3326385191006,4.75681942550963,-0.00419098296673148,1,15.5,29.9
1.96666666666667,11.7336133718883,18.491118677191,4.75262999588697,-0.00418942962265767,1,15.5,29.9
2,11.7317521396443,18.6494589359524,4.74844211856241,-0.00418787732455961,1,15.5,29.9
2.03333333333333,11.7298680063219,18.8076593439202,4.74425579245362,-0.00418632610879044,1,15.5,29.9
2.06666666666667,11.727961026742,18.9657199496345,4.74007101651273,-0.00418477594088618,1,15.5,29.9
2.1,11.7260312570208,19.1236408016334,4.73588778976305,-0.00418322674968596,1,15.5,29.9
2.13333333333333,11.7240787536575,19.2814219484449,4.73170611130301,-0.00418167846004103,1,15.5,29.9
2.16666666666667,11.7221035729718,19.4390634385819,4.7275259802865,-0.00418013101650416,1,15.5,29.9
2.2,11.7201057710734,19.5965653205439,4.72334739589216,-0.00417858439434493,1,15.5,29.9
2.23333333333333,11.7180859900013,19.753927649446,4.71917027750906,-0.00417711838310098,1,15.5,29.9
2.26666666666667,11.7160468862753,19.9111505038306,4.71499458709271,-0.00417569041634369,1,15.5,29.9
2.3,11.7139913460342,20.0682339664315,4.71082031155641,-0.00417427553630745,1,15.5,29.9
2.33333333333333,11.7119238083594,20.2251781398128,4.70664739790551,-0.00417291365089767,1,15.5,29.9
2.36666666666667,11.7098496148856,20.3819831395471,4.70247591491437,-0.00417148299114078,1,15.5,29.9
2.4,11.7077728343612,20.5386490683481,4.69830592666059,-0.00416998825377668,1,15.5,29.9
2.43333333333333,11.7056979115567,20.6951760348823,4.69413743641018,-0.00416849025041,1,15.5,29.9
2.46666666666667,11.7036293683491,20.8515641499242,4.6899705200924,-0.00416691631777688,1,15.5,29.9
2.5,11.7015699510694,21.0078135031652,4.68580522241107,-0.00416529768133245,1,15.5,29.9
2.53333333333333,11.6995219532063,21.1639241785287,4.68164156742149,-0.00416365498958271,1,15.5,29.9
2.56666666666667,11.6974856952671,21.319896234979,4.67747958235178,-0.00416198506971011,1,15.5,29.9
2.6,11.6954595872775,21.4757297067725,4.67331925550638,-0.00416032684539402,1,15.5,29.9
2.63333333333333,11.6934408112775,21.631424611789,4.66916055954991,-0.00415869595647678,1,15.5,29.9
2.66666666666667,11.6914259285262,21.7869809592192,4.66500346696045,-0.00415709258945363,1,15.5,29.9
2.7,11.6894113737678,21.9423987559336,4.66084795668627,-0.00415551027418548,1,15.5,29.9
2.73333333333333,11.6873938252108,22.0976780112849,4.65669401460421,-0.00415394208205466,1,15.5,29.9
2.76666666666667,11.6853704557742,22.2528187403864,4.65254163111877,-0.00415238348544023,1,15.5,29.9
2.8,11.6833390797321,22.4078209660597,4.6483907984207,-0.00415083269807415,1,15.5,29.9
2.83333333333333,11.6812982115854,22.5626847196846,4.64424150869834,-0.00414928972236162,1,15.5,29.9
2.86666666666667,11.6792470535777,22.7174100411634,4.64009375360559,-0.00414775509274889,1,15.5,29.9
2.9,11.6771854270669,22.871996978185,4.635947524719,-0.00414622888658478,1,15.5,29.9
2.93333333333333,11.675113662284,23.02644558495,4.6318028144964,-0.0041447102225991,1,15.5,29.9
2.96666666666667,11.673032461184,23.1807559205236,4.62765961725239,-0.00414319724401757,1,15.5,29.9
3,11.6709427486551,23.3349280469942,4.62351792979079,-0.00414168746159493,1,15.5,29.9
3.03333333333333,11.6688455274402,23.488962027632,4.61937775151516,-0.00414017827562851,1,15.5,29.9
3.06666666666667,11.6667417509667,23.6428579252326,4.61523908402611,-0.00413866748905622,1,15.5,29.9
3.1,11.6646322254592,23.7966158008071,4.6111019303631,-0.00413715366300416,1,15.5,29.9
3.13333333333333,11.6625175483588,23.9502357127254,4.6069662941219,-0.00413563624120794,1,15.5,29.9
3.16666666666667,11.6603980848002,24.1037177163486,4.60283217866619,-0.00413411545570597,1,15.5,29.9
3.2,11.6582739786001,24.2570618657591,4.59869982428059,-0.00413235438559845,1,15.5,29.9
3.23333333333333,11.6561451893325,24.4102682599903,4.59457262869997,-0.00412719558061969,1,15.5,29.9
3.26666666666667,11.6540115440346,24.5633372031237,4.59045940238312,-0.00411322631685174,1,15.5,29.9
3.3,11.6518727941948,24.7162693423292,4.58637134285041,-0.0040880595327053,1,15.5,29.9
3.33333333333333,11.6497286693976,24.8690656939681,4.58231911652499,-0.00405222632542834,1,15.5,29.9
3.36666666666667,11.6475789199781,25.0217276017928,4.5783115221378,-0.00400759438719067,1,15.5,29.9
3.4,11.6454233446273,25.1742566631618,4.5743548990915,-0.00395662304629507,1,15.5,29.9
3.43333333333333,11.643261802492,25.3266546462185,4.57045313138943,-0.00390176770206718,1,15.5,29.9
3.46666666666667,11.6410942121899,25.4789234111086,4.56660785538351,-0.00384527600592488,1,15.5,29.9
3.5,11.6389205418791,25.6310648427931,4.56281899406593,-0.00378886131758094,1,15.5,29.9
3.53333333333333,11.636740794968,25.7830808027673,4.55908523490282,-0.00373375916310437,1,15.5,29.9
3.56666666666667,11.6345549956602,25.9349730924301,4.55540431010294,-0.00368092479988036,1,15.5,29.9
3.6,11.632363177221,26.0867434238652,4.55177312145427,-0.0036311886486704,1,15.5,29.9
3.63333333333333,11.6301653743451,26.2383933928368,4.54818782355335,-0.00358529790091744,1,15.5,29.9
3.66666666666667,11.6279616174558,26.3899246042364,4.5446729934745,-0.00351483007885101,1,15.5,29.9
3.7,11.6257517521168,26.5413514609345,4.54232288069967,-0.00235011277483199,1,15.5,29.9
3.73333333333333,11.6235346158865,26.6927594740115,4.54409290485606,0.00177002415638405,1,15.5,29.9
3.76666666666667,11.6213076586205,26.8443311752099,4.55229744897586,0.00820454411980087,1,15.5,29.9
3.8,11.619067781541,26.9962853231641,4.56696924335006,0.0146717943741983,1,15.5,29.9
3.83333333333333,11.6168120558662,27.1488252818144,4.58728129122898,0.0203120478789209,4,15.5,29.9
3.86666666666667,11.6145379651251,27.302121679207,4.61219704930171,0.0249157580727317,4,15.5,29.9
3.9,11.6122434242537,27.4563111881666,4.64072083210694,0.0285237828052347,4,15.5,29.9
3.93333333333333,11.6099267505168,27.6114989906379,4.67197711203833,0.0312562799313891,4,15.5,29.9
3.96666666666667,11.607586597611,27.7677640475273,4.70526773973353,0.0332906276951954,4,15.5,29.9
4,11.6052218864526,27.9251647391153,4.74005136860048,0.0347836288669514,4,15.5,29.9
4.03333333333333,11.6028317494704,28.0837436104025,4.77591217779818,0.0358608091977057,4,15.5,29.9
4.06666666666667,11.6004154954918,28.2435306425515,4.81250231583074,0.0365901380325591,4,15.5,29.9
4.1,11.5979725943952,28.4045450344907,4.84952821447072,0.0370258986399739,4,15.5,29.9
4.13333333333333,11.5955026472639,28.566797786007,4.88679613534739,0.0372679208766771,4,15.5,29.9
4.16666666666667,11.5930053509532,28.7302944282448,4.92414816526195,0.0373520299145582,4,15.5,29.9
4.2,11.5904804962071,28.8950352450632,4.96144943978654,0.0373012745245829,4,15.5,29.9
4.23333333333333,11.5879279350477,29.0610173987816,4.99863752807109,0.037188088284557,4,15.5,29.9
4.26666666666667,11.5853475501166,29.2282367841516,5.03570214733587,0.0370646192647817,4,15.5,29.9
4.3,11.5827392298603,29.3966894140995,5.07264898494043,0.0369468376045514,4,15.5,29.9
4.33333333333333,11.5801028610749,29.5663716303274,5.10950249107596,0.0368535061355333,4,15.5,29.9
4.36666666666667,11.5774383079811,29.7372812542803,5.14631807333784,0.0368155822618839,4,15.5,29.9
4.4,11.5747454128032,29.909417369398,5.18310488270324,0.0367868093653954,4,15.5,29.9
4.43333333333333,11.5720240238764,30.082778365075,5.21982010440613,0.0367152217028952,4,15.5,29.9
4.46666666666667,11.5692740094377,30.257361020651,5.2564154038893,0.0365952994831718,4,15.5,29.9
4.5,11.5664952552417,30.4331607161583,5.29285593565359,0.0364405317642893,4,15.5,29.9
4.53333333333333,11.5636876628892,30.6101716230705,5.32909451344518,0.0362385777915852,4,15.5,29.9
4.56666666666667,11.560851167762,30.7883856246196,5.36504460551958,0.0359500920744056,4,15.5,29.9
4.6,11.5579857518434,30.9677915764962,5.40061637598209,0.0355717704625054,4,15.5,29.9
4.63333333333333,11.555091453676,31.1483747547379,5.43564796570981,0.0350315897277174,4,15.5,29.9
4.66666666666667,11.5521684537876,31.3301114522934,5.46979074549003,0.0341427797802183,4,15.5,29.9
4.7,11.5492171037569,31.5129672660301,5.50277997149751,0.0329892260074889,4,15.5,29.9
4.73333333333333,11.5462378685617,31.6969009651926,5.5344648794552,0.0316849079576835,4,15.5,29.9
4.76666666666667,11.543231278455,31.8818677035408,5.56477334886279,0.0303084694075935,4,15.5,29.9
4.8,11.5401978965143,32.0678211851121,5.59369258903196,0.0289192401691727,4,15.5,29.9
4.83333333333333,11.5371382783463,32.2547162773654,5.62131179057104,0.027619201539073,4,15.5,29.9
4.86666666666667,11.5340529212991,32.4425122247106,5.64778853453822,0.0264767439671827,4,15.5,29.9
4.9,11.5309422508649,32.6311734537109,5.67326750977058,0.0254789752323612,4,15.5,29.9
4.93333333333333,11.52780663568,32.8206685501546,5.69785194214742,0.0245844323768436,4,15.5,29.9
4.96666666666667,11.5246471079179,33.0109688385354,5.72160342293314,0.0237514807857195,4,15.5,29.9
5,11.5214677018908,33.2020471891555,5.74455209537851,0.0229486724453691,4,15.5,29.9
5.03333333333333,11.5182749140598,33.3938771616117,5.7667085571185,0.022156461739983,4,15.5,29.9
5.06666666666667,11.5150760544804,33.5864324994446,5.78807386085004,0.0213653037315389,4,15.5,29.9
5.1,11.511876815455,33.7796869362707,5.8086527075555,0.0205788467054653,4,15.5,29.9
5.13333333333333,11.5086826430614,33.973615091445,5.8284984390391,0.0198457314835991,4,15.5,29.9
5.16666666666667,11.5054965626103,34.1681934893701,5.84765597614374,0.0191575371046424,4,15.5,29.9
5.2,11.5023192490011,34.3633991913495,5.86612313428366,0.0184671581399183,4,15.5,29.9
5.23333333333333,11.4991498494467,34.5592095269366,5.88393224288138,0.0178091085977163,1,15.5,29.9
5.26666666666667,11.4959866269345,34.7556037472155,5.90115881106012,0.0172265681787422,1,15.5,29.9
5.3,11.4928274421788,34.9525636296367,5.91787377037837,0.0167149593182554,1,15.5,29.9
5.33333333333333,11.4896700903623,35.1500729477338,5.93412474128983,0.0162509709114547,1,15.5,29.9
5.36666666666667,11.4865132061536,35.3481166586096,5.94993488164628,0.0158101403564492,1,15.5,29.9
5.4,11.4833580103496,35.5466802000057,5.965308553459,0.0153736718127178,1,15.5,29.9
5.43333333333333,11.4802055827424,35.7457489060783,5.9802332892764,0.0149247358174014,1,15.5,29.9
5.46666666666667,11.4770562968565,35.9453069085276,5.99464118097874,0.0144078917023407,1,15.5,29.9
5.5,11.4739101385758,36.1453346373422,6.00837591953192,0.0137347385531816,1,15.5,29.9
5.53333333333333,11.470767021324,36.3458056535209,6.02118734211731,0.0128114225853881,1,15.5,29.9
5.56666666666667,11.4676270092573,36.5466852028347,6.03285612655879,0.0116687844414853,1,15.5,29.9
5.6,11.4644903823858,36.747933275582,6.04328410356966,0.010427977010866,1,15.5,29.9
5.63333333333333,11.4613576170211,36.9495078415003,6.05243652367247,0.00915242010281414,1,15.5,29.9
5.66666666666667,11.4582270831472,37.1515084781301,6.0725793542898,0.0201428306173312,4,15.5,29.9
5.7,11.4550903135744,37.3544730597245,6.10864387908288,0.0360645247930735,4,15.5,29.9
5.73333333333333,11.4519412549117,37.5587915660619,6.1527730965603,0.0441292174774262,4,15.5,29.9
5.76666666666667,11.4487772452582,37.7646404908882,6.19975556802668,0.0469824714663707,4,15.5,29.9
5.8,11.4455978981088,37.9720509256629,6.24596660700454,0.0462110389778694,4,15.5,29.9
5.83333333333333,11.4424044022932,38.180952108517,6.28882174024933,0.0428551332447897,4,15.5,29.9
5.86666666666667,11.4391991182246,38.3911974007948,6.32634401924958,0.0375222790002487,4,15.5,29.9
5.9,11.4359852772048,38.6025842590876,6.35709310175332,0.0307490825037346,4,15.5,29.9
5.93333333333333,11.4327668137441,38.814865561206,6.37988793055596,0.0227948288026463,4,15.5,29.9
5.96666666666667,11.4295479095789,39.0277790548392,6.39532728490444,0.0154393543484783,1,15.5,29.9
6,11.4263319824103,39.2411123635538,6.40536944510892,0.0100421602044749,1,15.5,29.9
6.03333333333333,11.4231215318795,39.4547124107531,6.41153820705911,0.00616876195019778,1,15.5,29.9
