Time,x_ego,y_ego,velocity,acceleration,action,x_ped,y_ped
0,11.8,8.9,5,0,1,15.5,29.9
0.0333333333333333,11.8,9.06660768884189,4.99642261439338,-0.0035773856066168,1,15.5,29.9
0.0666666666666667,11.8,9.23309265311448,4.99264756783477,-0.00377504655861216,1,15.5,29.9
0.1,11.8,9.39944929692399,4.98873130122091,-0.00391626661385835,1,15.5,29.9
0.133333333333333,11.8,9.56567362451385,4.98471426828108,-0.00401703293983147,1,15.5,29.9
0.166666666666667,11.8,9.7317627870126,4.98062546389497,-0.00408880438611448,1,15.5,29.9
0.2,11.8,9.89771475756689,4.97648566969706,-0.00413979419790333,1,15.5,29.9
0.233333333333333,11.8,10.063528098494,4.97230978036584,-0.00417588933122204,1,15.5,29.9
0.266666666666667,11.8,10.2292017943893,4.96810847105553,-0.00420130931030815,1,15.5,29.9
0.3,11.8,10.3947351325064,4.96388939262275,-0.00421907843277847,1,15.5,29.9
0.333333333333333,11.8,10.5601276170202,4.95965802839236,-0.00423136423039949,1,15.5,29.9
0.366666666666667,11.8,10.7253789075748,4.95541830829244,-0.00423972009991047,1,15.5,29.9
0.4,11.8,10.8904887752388,4.95117304903021,-0.00424525926223307,1,15.5,29.9
0.433333333333333,11.8,11.0554570709351,4.94692426953351,-0.00424877949670321,1,15.5,29.9
0.466666666666667,11.8,11.2202837028143,4.94267341695966,-0.00425085257384605,1,15.5,29.9
0.5,11.8,11.3849686200364,4.93842152859998,-0.00425188835968093,1,15.5,29.9
0.533333333333333,11.8,11.5495118011469,4.93416934785826,-0.00425218074171951,1,15.5,29.9
0.566666666666667,11.8,11.7139132457448,4.92991740734792,-0.00425194051033717,1,15.5,29.9
0.6,11.8,11.8781729685112,4.9256660884612,-0.00425131888672592,1,15.5,29.9
0.633333333333333,11.8,12.0422909949291,4.92141566410698,-0.00425042435422096,1,15.5,29.9
0.666666666666667,11.8,12.2062673582159,4.91716632940257,-0.00424933470440969,1,15.5,29.9
0.7,11.8,12.3701020971241,4.91291822373206,-0.00424810567050482,1,15.5,29.9
0.733333333333333,11.8,12.5337952543655,4.9086714466029,-0.0042467771291621,1,15.5,29.9
0.766666666666667,11.8000023989655,12.69734687548,4.90442607327979,-0.00424537332310759,1,15.5,29.9
0.8,11.8000178064997,12.8607570079471,4.90018219316432,-0.00424388011546917,1,15.5,29.9
0.833333333333333,11.8000554238635,13.0240257001936,4.89593989267631,-0.00424230048801277,1,15.5,29.9
0.866666666666667,11.8001205777676,13.1871530006234,4.89169920815015,-0.00424068452615778,1,15.5,29.9
0.9,11.8002153656603,13.3501389571434,4.88746012416931,-0.0042390839808446,1,15.5,29.9
0.933333333333333,11.800339464733,13.5129836172985,4.88322259815643,-0.00423752601288285,1,15.5,29.9
0.966666666666667,11.8004909323861,13.6756870287975,4.87898658695702,-0.00423601119940198,1,15.5,29.9
1,11.800666892947,13.8382492401067,4.87475206282399,-0.0042345241330386,1,15.5,29.9
1.03333333333333,11.8008640677367,14.0006703008663,4.8705190173201,-0.00423304550388437,1,15.5,29.9
1.06666666666667,11.8010791519592,14.1629502620253,4.8662874574687,-0.004231559851398,1,15.5,29.9
1.1,11.8013090678259,14.3250891757127,4.86205739928307,-0.00423005818563738,1,15.5,29.9
1.13333333333333,11.8015511302347,14.4870870949276,4.8578288620281,-0.00422853725496619,1,15.5,29.9
1.16666666666667,11.8018031547324,14.6489440731484,4.85360186444198,-0.00422699758611955,1,15.5,29.9
1.2,11.802063524576,14.8106601639427,4.84937642277427,-0.00422544166771122,1,15.5,29.9
1.23333333333333,11.8023312211533,14.9722354206365,4.84515255001025,-0.00422387276401626,1,15.5,29.9
1.26666666666667,11.8026058143629,15.1336698960765,4.84093025571685,-0.00422229429340426,1,15.5,29.9
1.3,11.8028874085282,15.2949636424979,4.83670954618491,-0.00422070953193909,1,15.5,29.9
1.33333333333333,11.8031765441853,15.4561167114975,4.83249042472543,-0.00421912145947978,1,15.5,29.9
1.36666666666667,11.8034740639995,15.6171291540994,4.82827289204715,-0.00421753267827807,1,15.5,29.9
1.4,11.8037809588694,15.7780010208928,4.82405694665498,-0.00421594539217551,1,15.5,29.9
1.43333333333333,11.8040982151549,15.938732362214,4.8198425852327,-0.0042143614222736,1,15.5,29.9
1.46666666666667,11.8044266842858,16.0993232283415,4.81562980302951,-0.00421278220319188,1,15.5,29.9
1.5,11.8047669916524,16.2597736696729,4.8114185943179,-0.00421120871161129,1,15.5,29.9
1.53333333333333,11.8051194938424,16.4200837368537,4.80720895298091,-0.00420964133698831,1,15.4972222222222,29.9
1.56666666666667,11.8054842840178,16.5802534808432,4.80300087320865,-0.00420807977225834,1,15.4888888888889,29.9
1.6,11.8058612367478,16.7402829529129,4.79879435018484,-0.00420652302381175,1,15.475,29.9
1.63333333333333,11.8062500777544,16.9001722045867,4.79458938059128,-0.00420496959355621,1,15.4555555555556,29.9
1.66666666666667,11.8066504617833,17.0599212875447,4.79038596279097,-0.00420341780031386,1,15.4305555555556,29.9
1.7,11.8070620432346,17.2195302535139,4.78618409665285,-0.00420186613812135,1,15.4,29.9
1.73333333333333,11.8074845284521,17.3789991541716,4.78198378309784,-0.00420031355501127,1,15.3666666666667,29.9
1.76666666666667,11.8079177043479,17.538328041076,4.77778502351978,-0.00419875957805349,1,15.3333333333333,29.9
1.8,11.8083614438402,17.6975169656347,4.77358781924278,-0.00419720427700732,1,15.3,29.9
1.83333333333333,11.8088156931477,17.8565659799443,4.76939229413196,-0.00419552511082166,1,15.2666666666667,29.9
1.86666666666667,11.8092804485932,18.0154751593663,4.76520008150461,-0.00419221262734482,1,15.2333333333333,29.9
1.9,11.8097557309704,18.1742446754649,4.76101522693771,-0.00418485456690032,1,15.2,29.9
1.93333333333333,11.8102415638739,18.3328748618941,4.75684326109323,-0.00417196584447943,1,15.1666666666667,29.9
1.96666666666667,11.810737959856,18.4913662521818,4.75269057345889,-0.0041526876343454,1,15.1333333333333,29.9
2,11.8112449154285,18.6497195997174,4.74856383347961,-0.00412673997927282,1,15.1,29.9
2.03333333333333,11.8117624134252,18.8079358730727,4.74446914220091,-0.00409469127870388,1,15.0666666666667,29.9
2.06666666666667,11.8122904297275,18.9660162261863,4.74041150788506,-0.00405763431585182,1,15.0333333333333,29.9
2.1,11.8128289409994,19.1239619685724,4.73639542491349,-0.00401608297156475,1,15,29.9
2.13333333333333,11.8133779306506,19.2817745609663,4.73242549734091,-0.00396992757258552,1,14.9666666666667,29.9
2.16666666666667,11.8139373913278,19.4394556184531,4.72850634192254,-0.00391915541836241,1,14.9333333333333,29.9
2.2,11.81450732362,19.5970069058245,4.72464225018604,-0.00386409173650559,1,14.9,29.9
2.23333333333333,11.8150877318656,19.7544303167038,4.72083652172906,-0.00380572845697547,1,14.8666666666667,29.9
2.26666666666667,11.8156786186518,19.9117278279506,4.71709078318612,-0.00374573854293914,1,14.8333333333333,29.9
2.3,11.816279979786,20.0689014403671,4.71340484822745,-0.00368593495867664,1,14.8,29.9
2.33333333333333,11.8168918011604,20.2259531198555,4.70977685232642,-0.00362799590102636,1,14.7666666666667,29.9
2.36666666666667,11.8175140787064,20.3828910406269,4.70702481005617,-0.00275204227024695,1,14.7333333333333,29.9
2.4,11.8181471342935,20.5398240395003,4.71059597242296,0.00357116236679023,1,14.7,29.9
2.43333333333333,11.8187919195517,20.6970432678722,4.72443119698915,0.0138352245661872,1,14.6666666666667,29.9
2.46666666666667,11.8194496633042,20.8549012150405,4.74879499879629,0.0243638018071355,4,14.6333333333333,29.9
2.5,11.820121606129,21.0137248056271,4.78190681326465,0.0331118144683584,4,14.6,29.9
2.53333333333333,11.820808773764,21.1737486054153,4.82005023265617,0.0381434193915204,4,14.5666666666667,29.9
2.56666666666667,11.8215117695477,21.3350621025531,4.85852382028136,0.0384735876251892,4,14.5333333333333,29.9
2.6,11.822230682206,21.4975965983038,4.89243426878895,0.0339104485075961,4,14.5,29.9
2.63333333333333,11.8229650273712,21.6611257775348,4.91791315454513,0.0254788857561747,4,14.4666666666667,29.9
2.66666666666667,11.8237140535108,21.8253635412884,4.9352996508712,0.0173864963260755,1,14.4333333333333,29.9
2.7,11.8244771329389,21.9900767153655,4.9467684610566,0.0114688101853933,1,14.4,29.9
2.73333333333333,11.8252537979369,22.1550974153465,4.95398896035432,0.00722049929772073,1,14.3666666666667,29.9
2.76666666666667,11.8260436726956,22.320305068465,4.95815666703114,0.00416770667682087,1,14.3333333333333,29.9
2.8,11.8268464307049,22.4856129788921,4.96012752824552,0.00197086121438073,1,14.3,29.9
2.83333333333333,11.8276617729559,22.6509586991662,4.96051411486798,0.000386586622460605,1,14.2666666666667,29.9
2.86666666666667,11.8284868201027,22.815691111606,4.92339376292199,-0.0371203519459877,3,14.2333333333333,29.9
2.9,11.8293150174387,22.9784798284751,4.843939231565,-0.0794545313569861,3,14.2,29.9
2.93333333333333,11.8301372263426,23.1380616371932,4.73101261887779,-0.11292661268721,3,14.1666666666667,29.9
2.96666666666667,11.8309429266863,23.2934392654158,4.5917118499898,-0.139300768887991,3,14.1333333333333,29.9
3,11.8317213428554,23.4438795560504,4.43478913207624,-0.156922717913559,3,14.1,29.9
3.03333333333333,11.8324619723091,23.5888543752716,4.26379656523513,-0.170992566841115,3,14.0666666666667,29.9
3.06666666666667,11.833155856967,23.7280113136305,4.08572792981351,-0.178068635421615,3,14.0333333333333,29.9
3.1,11.8337979910125,23.8611726147073,3.90407063691797,-0.181657292895546,3,14,29.9
3.13333333333333,11.8343867960515,23.9882191290494,3.71885425495667,-0.185216381961295,3,13.9666666666667,29.9
3.16666666666667,11.8349233154701,24.109061720019,3.53185210613515,-0.187002148821524,3,13.9333333333333,29.9
3.2,11.8354108732532,24.2236123821254,3.34135266029045,-0.190499445844702,3,13.9,29.9
3.23333333333333,11.8358554528782,24.331755402572,3.14740267056064,-0.193949989729812,3,13.8666666666667,29.9
3.26666666666667,11.8362636008582,24.4333758331704,2.94999878584099,-0.197403884719649,3,13.8333333333333,29.9
3.3,11.8366412397069,24.5283302183904,2.74743282564438,-0.202565960196611,3,13.8,29.9
3.33333333333333,11.8369934029061,24.6164755141489,2.54143806182549,-0.205994763818883,3,13.7666666666667,29.9
3.36666666666667,11.8373240642054,24.6976976822519,2.33202353803822,-0.209414523787276,3,13.7333333333333,29.9
3.4,11.8376360723072,24.7719701089683,2.12449086969033,-0.207532668347892,3,13.7,29.9
3.43333333333333,11.8379309420347,24.8393454441113,1.91852869693997,-0.205962172750352,3,13.6666666666667,29.9
3.46666666666667,11.8382087051721,24.8998740314225,1.71377282192364,-0.204755875016336,3,13.6333333333333,29.9
3.5,11.8384683851614,24.9536324565847,1.51234513828161,-0.201427683642028,3,13.6,29.9
3.53333333333333,11.8387084289657,25.0007347428276,1.31442686158647,-0.197918276695135,3,13.5666666666667,29.9
3.56666666666667,11.8389267950557,25.0412708211565,1.11839389608847,-0.196032965498006,3,13.5333333333333,29.9
3.6,11.8391212550037,25.075304611028,0.924355564446962,-0.194038331641507,3,13.5,29.9
3.63333333333333,11.8392899098089,25.1029354005912,0.734282759756674,-0.190072804690288,3,13.4666666666667,29.9
3.66666666666667,11.8394313384507,25.1242953663671,0.548163316413659,-0.186119443343015,3,13.4333333333333,29.9
3.7,11.8395445326615,25.1395164579244,0.366081401481919,-0.18208191493174,3,13.4,29.9
3.73333333333333,11.839628938346,25.1487334928949,0.188141908616068,-0.177939492865851,3,13.3666666666667,29.9
3.76666666666667,11.8396844309038,25.1520813680654,0.0176413479215324,-0.170500560694535,3,13.3333333333333,29.9
3.8,11.8397137328074,25.1502319431163,0.0791294950315635,0.0614881471100312,4,13.3,29.9
3.83333333333333,11.8397371935632,25.1476164467085,0.009734269984915,-0.0693952250466485,3,13.2666666666667,29.9
3.86666666666667,11.8397371935632,25.1476164467085,0.00970909869079155,-2.51712941234557e-05,5,13.2333333333333,29.9
3.9,11.8397371935632,25.1476164467085,0.0101400744664954,0.000430975775703852,5,13.2,29.9
3.93333333333333,11.8397371935632,25.1476164467085,0.0109395641732522,0.000799489706756763,5,13.1666666666667,29.9
3.96666666666667,11.8397371935632,25.1476164467085,0.0119537115448161,0.0010141473715639,5,13.1333333333333,29.9
4,11.8397371935632,25.1476164467085,0.0129938696731618,0.00104015812834569,5,13.1,29.9
4.03333333333333,11.8397371935632,25.1476164467085,0.0138658045026344,0.000871934829472612,5,13.0666666666667,29.9
4.06666666666667,11.8397371935632,25.1476164467085,0.0143944860355348,0.000528681532900428,5,13.0333333333333,29.9
4.1,11.8397371935632,25.1476164467085,0.0144430277465906,4.85417110558349e-05,5,13,29.9
4.13333333333333,11.8397371935632,25.1476164467085,0.0139250615044821,-0.000517966242108496,5,12.9666666666667,29.9
4.16666666666667,11.8397371935632,25.1476164467085,0.0128104935698383,-0.00111456793464382,5,12.9333333333333,29.9
4.2,11.8397371935632,25.1476164467085,0.0111251392593684,-0.00168535431046996,5,12.9,29.9
4.23333333333333,11.8397371935632,25.1476164467085,0.00894515606109346,-0.00217998319827489,5,12.8666666666667,29.9
4.26666666666667,11.8397371935632,25.1476164467085,0.00638747721539846,-0.002557678845695,5,12.8333333333333,29.9
4.3,11.8397371935632,25.1476164467085,0.00359759179877432,-0.00278988541662415,5,12.8,29.9
4.33333333333333,11.8397371935632,25.1476164467085,0.000736034707287946,-0.00286155709148637,5,12.7666666666667,29.9
4.36666666666667,11.8397371935632,25.1476164467085,0.00203514047597837,0.00129910576869042,5,12.7333333333333,29.9
4.4,11.8397371935632,25.1476164467085,0.00456480725158382,0.00252966677560545,5,12.7,29.9
4.43333333333333,11.8397371935632,25.1476164467085,0.00672326473175779,0.00215845748017398,5,12.6666666666667,29.9
4.46666666666667,11.8397371935632,25.1476164467085,0.00841018763269689,0.0016869229009391,5,12.6333333333333,29.9
4.5,11.8397371935632,25.1476164467085,0.00955969868725647,0.00114951105455957,5,12.6,29.9
4.53333333333333,11.8397371935632,25.1476164467085,0.0101424932310485,0.000582794543792002,5,12.5666666666667,29.9
4.56666666666667,11.8397371935632,25.1476164467085,0.0101651741471817,2.26809161331977e-05,5,12.5333333333333,29.9
4.6,11.8397371935632,25.1476164467085,0.00966714124822214,-0.000498032898959529,5,12.5,29.9
4.63333333333333,11.8397371935632,25.1476164467085,0.00871551521415512,-0.000951626034067017,5,12.4666666666667,29.9
4.66666666666667,11.8397371935632,25.1476164467085,0.00739865970330395,-0.00131685551085117,5,12.4333333333333,29.9
4.7,11.8397371935632,25.1476164467085,0.00581889762768453,-0.00157976207561942,5,12.4,29.9
4.73333333333333,11.8397371935632,25.1476164467085,0.00408500363963203,-0.00173389398805249,5,12.3666666666667,29.9
4.76666666666667,11.8397371935632,25.1476164467085,0.00230500196044086,-0.00178000167919117,5,12.3333333333333,29.9
4.8,11.8397371935632,25.1476164467085,0.000579715797103078,-0.00172528616333778,5,12.3,29.9
4.83333333333333,11.8397371935632,25.1476164467085,0.00100258846763669,0.000422872670533615,5,12.2666666666667,29.9
4.86666666666667,11.8397371935632,25.1476164467085,0.00237023257010124,0.00136764410246455,5,12.2333333333333,29.9
4.9,11.8397371935632,25.1476164467085,0.00347071810371052,0.00110048553360928,5,12.2,29.9
4.93333333333333,11.8397371935632,25.1476164467085,0.00427187168085535,0.000801153577144827,5,12.1666666666667,29.9
4.96666666666667,11.8397371935632,25.1476164467085,0.004761631464998,0.000489759784142645,5,12.1333333333333,29.9
5,11.8397371935632,25.1476164467085,0.00494664031140536,0.000185008846407358,5,12.1,29.9
5.03333333333333,11.8397371935632,25.1476164467085,0.00484986757461645,-9.6772736788907e-05,5,12.0666666666667,29.9
5.06666666666667,11.8397371935632,25.1476164467085,0.00450751693519945,-0.000342350639416996,5,12.0333333333333,29.9
5.1,11.8397371935632,25.1476164467085,0.00396549188193283,-0.000542025053266618,5,12,29.9
5.13333333333333,11.8397371935632,25.1476164467085,0.00327568558366966,-0.000689806298263177,5,11.9666666666667,29.9
5.16666666666667,11.8397371935632,25.1476164467085,0.00249234062879941,-0.000783344954870247,5,11.9333333333333,29.9
5.2,11.8397371935632,25.1476164467085,0.00166869000870418,-0.000823650620095234,5,11.9,29.9
5.23333333333333,11.8397371935632,25.1476164467085,0.000854047638227239,-0.000814642370476938,5,11.8666666666667,29.9
5.26666666666667,11.8397371935632,25.1476164467085,9.14685577184117e-05,-0.000762579080508827,5,11.8333333333333,29.9
5.3,11.8397371935632,25.1476164467085,0.000583950542735036,0.000492481985016624,5,11.8,29.9
5.33333333333333,11.8397371935632,25.1476164467085,0.00114610740313587,0.00056215686040083,5,11.7666666666667,29.9
5.36666666666667,11.8397371935632,25.1476164467085,0.00157828671054688,0.000432179307411012,5,11.7333333333333,29.9
5.4,11.8397371935632,25.1476164467085,0.00187296507410105,0.000294678363554175,5,11.7,29.9
5.43333333333333,11.8397371935632,25.1476164467085,0.00203111259081209,0.000158147516711033,5,11.6666666666667,29.9
5.46666666666667,11.8397371935632,25.1476164467085,0.00206109450395452,2.99819131424303e-05,5,11.6333333333333,29.9
5.5,11.8397371935632,25.1476164467085,0.00197728705084459,-8.38074531099285e-05,5,11.6,29.9
5.53333333333333,11.8397371935632,25.1476164467085,0.00179852393593819,-0.000178763114906397,5,11.5666666666667,29.9
5.56666666666667,11.8397371935632,25.1476164467085,0.0015464849062822,-0.000252039029655992,5,11.5333333333333,29.9
5.6,11.8397371935632,25.1476164467085,0.0012441269264176,-0.000302357979864598,5,11.5,29.9
5.63333333333333,11.8397371935632,25.1476164467085,0.000914242920787861,-0.000329884005629741,5,11.4666666666667,29.9
5.66666666666667,11.8397371935632,25.1476164467085,0.000578214522181292,-0.000336028398606569,5,11.4333333333333,29.9
5.7,11.8397371935632,25.1476164467085,0.000255005253785753,-0.000323209268395538,5,11.4,29.9
5.73333333333333,11.8397371935632,25.1476164467085,3.95795197076914e-05,-0.000215425734078062,5,11.3666666666667,29.9
5.76666666666667,11.8397371935632,25.1476164467085,0.000293358497578876,0.000253778977871184,5,11.3333333333333,29.9
5.8,11.8397371935632,25.1476164467085,0.000497975684104376,0.0002046171865255,5,11.3,29.9
5.83333333333333,11.8397371935632,25.1476164467085,0.000648860475089193,0.000150884790984817,5,11.2666666666667,29.9
5.86666666666667,11.8397371935632,25.1476164467085,0.00074498086231955,9.61203872303564e-05,5,11.2333333333333,29.9
5.9,11.8397371935632,25.1476164467085,0.000788431333799113,4.34504714795639e-05,5,11.2,29.9
5.93333333333333,11.8397371935632,25.1476164467085,0.00078390094022055,-4.5303935785635e-06,5,11.1666666666667,29.9
5.96666666666667,11.8397371935632,25.1476164467085,0.000738067719096971,-4.58332211235787e-05,5,11.1333333333333,29.9
6,11.8397371935632,25.1476164467085,0.000658963613243427,-7.91041058535447e-05,5,11.1,29.9
6.03333333333333,11.8397371935632,25.1476164467085,0.000555349694763687,-0.00010361391847974,5,11.0666666666667,29.9
6.06666666666667,11.8397371935632,25.1476164467085,0.000436135477592946,-0.00011921421717074,5,11.0333333333333,29.9
6.1,11.8397371935632,25.1476164467085,0.000309868959629342,-0.000126266517963605,5,11,29.9
6.13333333333333,11.8397371935632,25.1476164467085,0.000184316350709889,-0.000125552608919452,5,10.9666666666667,29.9
6.16666666666667,11.8397371935632,25.1476164467085,6.61427374062013e-05,-0.000118173613303688,5,10.9333333333333,29.9
6.2,11.8397371935632,25.1476164467085,3.93023407307247e-05,-2.68403966754766e-05,5,10.9,29.9
6.23333333333333,11.8397371935632,25.1476164467085,0.000128096915748583,8.87945750178587e-05,5,10.8666666666667,29.9
6.26666666666667,11.8397371935632,25.1476164467085,0.000197764163311826,6.96672475632426e-05,5,10.8333333333333,29.9
6.3,11.8397371935632,25.1476164467085,0.000247207686307044,4.9443522995218e-05,5,10.8,29.9
6.33333333333333,11.8397371935632,25.1476164467085,0.000276579604872604,2.93719185655601e-05,5,10.7666666666667,29.9
6.36666666666667,11.8397371935632,25.1476164467085,0.000287098206225227,1.0518601352623e-05,5,10.7333333333333,29.9
6.4,11.8397371935632,25.1476164467085,0.000280832380306522,-6.26582591870472e-06,5,10.7,29.9
6.43333333333333,11.8397371935632,25.1476164467085,0.000260469496460577,-2.03628838459451e-05,5,10.6666666666667,29.9
6.46666666666667,11.8397371935632,25.1476164467085,0.00022908194419058,-3.13875522699975e-05,5,10.6333333333333,29.9
