Time,x_ego,y_ego,velocity,acceleration,action,x_ped,y_ped
0,11.8,15.9,5,0,1,15.5,29.9
0.0333333333333333,11.8000036768801,16.0666076888373,4.99642262416332,-0.00357737583668349,1,15.4502170138889,29.9
0.0666666666666667,11.8000272651208,16.233092652908,4.9926476857398,-0.00377493842351484,1,15.4008680555556,29.9
0.1,11.8000847919653,16.399449294975,4.98873173914628,-0.00391594659352013,1,15.351953125,29.9
0.133333333333333,11.8001843392367,16.5656736155049,4.98471525981276,-0.00401647933352578,1,15.3034722222222,29.9
0.166666666666667,11.8003290711902,16.73176275902,4.98062716410351,-0.00408809570924529,1,15.2554253472222,29.9
0.2,11.8005184960773,16.8977146900508,4.97648810754567,-0.0041390565578423,1,15.2078125,29.9
0.233333333333333,11.8007496976222,17.0635279618533,4.9723128680473,-0.00417523949836962,1,15.1606336805556,29.9
0.266666666666667,11.801018378768,17.2292015511246,4.96811204609544,-0.00420082195185678,1,15.1138888888889,29.9
0.3,11.8013196570638,17.3947347395032,4.96389326588599,-0.00421878020945599,1,15.067578125,29.9
0.333333333333333,11.8016486221426,17.5601270282588,4.95966202137674,-0.00423124450924917,1,15.0217013888889,29.9
0.366666666666667,11.8020007044846,17.7253780766361,4.95542227471906,-0.00423974665767357,1,14.9762586805556,29.9
0.4,11.8023719138382,17.8904876571783,4.95117688305996,-0.00424539165910254,1,14.93125,29.9
0.433333333333333,11.802758994179,18.0554556233263,4.94692790539068,-0.00424897766928467,1,14.8866753472222,29.9
0.466666666666667,11.8031595212307,18.2202818859506,4.94267682417048,-0.00425108122020035,1,14.8425347222222,29.9
0.5,11.8035719486378,18.3849663964134,4.93842470549083,-0.00425211867964759,1,14.798828125,29.9
0.533333333333333,11.803995596775,18.5495091344218,4.93417231463342,-0.00425239085741236,1,14.7555555555556,29.9
0.566666666666667,11.8044305764686,18.7139100994056,4.92992019934093,-0.0042521152924806,1,14.7127170138889,29.9
0.6,11.8048776471432,18.8781693044853,4.92566874987219,-0.00425144946874045,1,14.6703125,29.9
0.633333333333333,11.8053380210154,19.0422867723401,4.92141824242231,-0.00425050744988553,1,14.6283420138889,29.9
0.666666666666667,11.8058131369004,19.2062625324488,4.91716887059204,-0.00424937183026497,1,14.5868055555556,29.9
0.7,11.8063044347058,19.3700966193026,4.91292076824727,-0.00424810234476958,1,14.545703125,29.9
0.733333333333333,11.8068131623045,19.5337890712697,4.90867402622813,-0.00424674201914588,1,14.5050347222222,29.9
0.766666666666667,11.8073402400419,19.6973399298647,4.90442870476441,-0.00424532146371437,1,14.4648003472222,29.9
0.8,11.8078861964836,19.8607492392326,4.9001848429412,-0.0042438618232099,1,14.425,29.9
0.833333333333333,11.8084511752081,20.0240170457173,4.89594246605272,-0.00424237688848095,1,14.3856336805556,29.9
0.866666666666667,11.8090349998583,20.1871433974438,4.89170159123376,-0.00424087481895885,1,14.3467013888889,29.9
0.9,11.8096363726397,20.3497820994265,4.8666879108516,-0.0250136803821635,3,14.308203125,29.9
0.933333333333333,11.8102511671757,20.5108371289954,4.79668604335566,-0.0700018674959457,3,14.2701388888889,29.9
0.966666666666667,11.8108724482266,20.6690687978497,4.6972903595276,-0.0993956838280505,3,14.2325086805556,29.9
1,11.8114938802662,20.8236704008872,4.57888530668165,-0.118405052845951,3,14.1953125,29.9
1.03333333333333,11.8121083162723,20.9740084279181,4.44147829289823,-0.137407013783427,3,14.1585503472222,29.9
1.06666666666667,11.8127094335594,21.1194208991161,4.28335459168741,-0.15812370121082,3,14.1222222222222,29.9
1.1,11.8132927033375,21.2593903021279,4.1148979850041,-0.168456606683308,3,14.086328125,29.9
1.13333333333333,11.8138555848944,21.3936874376924,3.94302449927362,-0.171873485730474,3,14.0508680555556,29.9
1.16666666666667,11.8143965403871,21.5221410223293,3.76429367153084,-0.178730827742784,3,14.0158420138889,29.9
1.2,11.8149144183899,21.6445221224929,3.5786866773227,-0.185606994208139,3,13.98125,29.9
1.23333333333333,11.815408443622,21.7606019079391,3.38622747038641,-0.192459206936295,3,13.9470920138889,29.9
1.26666666666667,11.8158783690891,21.8702384730804,3.19210571268314,-0.194121757703263,3,13.9133680555556,29.9
1.3,11.8163242651308,21.9733473855348,2.9945779750582,-0.197527737624945,3,13.9133680555556,29.9
1.33333333333333,11.8167461199612,22.0698151981188,2.79364468885561,-0.200933286202592,3,13.9133680555556,29.9
1.36666666666667,11.8171440489535,22.1595862744191,2.59277243773929,-0.200872251116318,3,13.9133680555556,29.9
1.4,11.8175182016844,22.2426627739906,2.3919617221518,-0.20081071558749,3,13.9133680555556,29.9
1.43333333333333,11.8178684661436,22.3190469493396,2.19122766756609,-0.200734054585713,3,13.9133680555556,29.9
1.46666666666667,11.8181944518796,22.3887506516241,1.99142731438818,-0.199800353177902,3,13.9133680555556,29.9
1.5,11.8184956624587,22.4518353475706,1.7942377937191,-0.197189520669081,3,13.9133680555556,29.9
1.53333333333333,11.8187715219959,22.5083998058869,1.60023373060063,-0.194004063118469,3,13.9133680555556,29.9
1.56666666666667,11.8190213683327,22.5585533875193,1.40959360626775,-0.190640124332887,3,13.9133680555556,29.9
1.6,11.819244525839,22.6024100235501,1.22242328329985,-0.187170322967893,3,13.9133680555556,29.9
1.63333333333333,11.8194403804697,22.6400859814011,1.03876538836993,-0.183657894929925,3,13.9133680555556,29.9
1.66666666666667,11.8196084440074,22.6717002119384,0.858784785922378,-0.17998060244755,3,13.9133680555556,29.9
1.7,11.8197485234009,22.6974072943017,0.684364463295975,-0.174420322626403,3,13.9133680555556,29.9
1.73333333333333,11.8198605962375,22.7173615776159,0.513678772514619,-0.170685690781357,3,13.9133680555556,29.9
1.76666666666667,11.8199446925705,22.7316880294743,0.346813773919306,-0.166864998595312,3,13.9133680555556,29.9
1.8,11.8200011159943,22.7405418694296,0.185533420719978,-0.161280353199328,3,13.9133680555556,29.9
1.83333333333333,11.8200305259673,22.7441349414628,0.0329115097993169,-0.152621910920661,3,13.9133680555556,29.9
1.86666666666667,11.8200400628227,22.7442683530161,0.0497888539523364,0.0168773441530194,5,13.9133680555556,29.9
1.9,11.8200363221322,22.7426471337393,0.0104216368338859,-0.0393672171184505,3,13.9133680555556,29.9
1.93333333333333,11.8200363221322,22.7426471337393,0.0104960495965966,7.44127627107273e-05,5,13.9133680555556,29.9
1.96666666666667,11.8200363221322,22.7426471337393,0.0108779839994221,0.000381934402825483,5,13.9133680555556,29.9
2,11.8200363221322,22.7426471337393,0.0114944209684217,0.000616436968999578,5,13.9133680555556,29.9
2.03333333333333,11.8200363221322,22.7426471337393,0.0123130880385403,0.000818667070118576,5,13.9133680555556,29.9
2.06666666666667,11.8200391175585,22.7433432140463,0.0426978557601635,0.0303847677216233,4,13.9133680555556,29.9
2.1,11.8200478879065,22.7455270226355,0.0915328173021207,0.0488349615419571,4,13.9133680555556,29.9
2.13333333333333,11.8200633149554,22.7493673336384,0.14070234999199,0.0491695326898697,4,13.9133680555556,29.9
2.16666666666667,11.8200853364181,22.7548460325093,0.189305059473105,0.0486027094811148,4,13.9133680555556,29.9
2.2,11.8201138601359,22.7619352973354,0.23700219254465,0.0476971330715443,4,13.9133680555556,29.9
2.23333333333333,11.8201487803298,22.7706010611035,0.283650018106832,0.0466478255621824,4,13.9133680555556,29.9
2.26666666666667,11.820189999543,22.7808080321478,0.329262635136271,0.0456126170294391,4,13.9133680555556,29.9
2.3,11.8202374384452,22.7925218580593,0.373869434979485,0.0446067998432138,4,13.9133680555556,29.9
2.33333333333333,11.82029103586,22.8057090411968,0.417498706530954,0.0436292715514693,4,13.9133680555556,29.9
2.36666666666667,11.8203507478862,22.8203368325499,0.460175805220387,0.0426770986894333,4,13.9133680555556,29.9
2.4,11.8204165458824,22.8363730568727,0.501910876508888,0.0417350712885007,4,13.9133680555556,29.9
2.43333333333333,11.8204884113038,22.853785369095,0.54268973667185,0.0407788601629621,4,13.9133680555556,29.9
2.46666666666667,11.8205663320366,22.8725410892214,0.582503722867734,0.0398139861958842,4,13.9133680555556,29.9
2.5,11.8206502999099,22.8926075113991,0.621350515323021,0.0388467924552869,4,13.9133680555556,29.9
2.53333333333333,11.8207403288195,22.9139521371444,0.659232891565139,0.0378823762421177,4,13.9133680555556,29.9
2.56666666666667,11.820836518133,22.9365428478928,0.696159787230759,0.0369268956656199,4,13.9133680555556,29.9
2.6,11.8209389915473,22.9603491742307,0.732273423428948,0.036113636198189,4,13.9133680555556,29.9
2.63333333333333,11.8210479275068,22.9853572928451,0.768550127082648,0.0362767036536999,4,13.9133680555556,29.9
2.66666666666667,11.8211636837126,23.0116030503815,0.806882924581902,0.0383327974992543,4,13.9133680555556,29.9
2.7,11.8212868573857,23.0391884365789,0.849216452351414,0.0423335277695118,4,13.9133680555556,29.9
2.73333333333333,11.8214182536283,23.0682745236687,0.897130739926284,0.0479142875748698,4,13.9133680555556,29.9
2.76666666666667,11.8215588325576,23.0990684473804,0.951832104371217,0.0547013644449336,4,13.9133680555556,29.9
2.8,11.8217096674447,23.1318124572778,1.0142300368101,0.0623979324388831,4,13.9133680555556,29.9
2.83333333333333,11.8218719066528,23.1667732717184,1.08487148624894,0.0706414494388425,4,13.9133680555556,29.9
2.86666666666667,11.8220467318654,23.2042299017162,1.16398069388647,0.0791092076375304,4,13.9133680555556,29.9
2.9,11.8222353344427,23.2444653206483,1.25157437069659,0.0875936768101202,4,13.9133680555556,29.9
2.93333333333333,11.8224388961463,23.2877586309207,1.34738669392755,0.095812323230954,4,13.9133680555556,29.9
2.96666666666667,11.8226585645974,23.3343754996694,1.45089763275178,0.103510938824229,4,13.9133680555556,29.9
3,11.8228954420416,23.3845616155073,1.56143581685924,0.110538184107466,4,13.9133680555556,29.9
3.03333333333333,11.8231505838276,23.4385385850952,1.67823392867403,0.116798111814786,4,13.9133680555556,29.9
3.06666666666667,11.8234250046893,23.496502172971,1.80053236820439,0.122298439530362,4,13.9133680555556,29.9
3.1,11.8237196991138,23.5586247657581,1.92768534042254,0.127152972218153,4,13.9133680555556,29.9
3.13333333333333,11.8240356587941,23.6250583072212,2.05909582720103,0.131410486778491,4,13.9133680555556,29.9
3.16666666666667,11.8243738682859,23.6959334932943,2.19405908451043,0.134963257309394,4,13.9133680555556,29.9
3.2,11.8247350294335,23.7713566721955,2.33186542948392,0.13780634497349,4,13.9133680555556,29.9
3.23333333333333,11.8251188187933,23.8514123874767,2.4719140150763,0.140048585592385,4,13.9133680555556,29.9
3.26666666666667,11.8255244521273,23.9361667436628,2.61369974422126,0.14178572914496,4,13.9133680555556,29.9
3.3,11.8259498928255,24.0256703707742,2.75679527410087,0.143095529879609,4,13.9133680555556,29.9
3.33333333333333,11.8263921221303,24.1199608945378,2.90086663454647,0.144071360445599,4,13.9133680555556,29.9
3.36666666666667,11.8268488022017,24.219068201713,3.0457812975363,0.144914662989824,4,13.9133680555556,29.9
3.4,11.8273186872426,24.3230190748051,3.19146295601309,0.145681658476796,4,13.9133680555556,29.9
3.43333333333333,11.8278016174152,24.4318379293803,3.33784641612758,0.146383460114488,4,13.9133680555556,29.9
3.46666666666667,11.8282983430775,24.5455469356245,3.48485505331609,0.147008637188508,4,13.9133680555556,29.9
3.5,11.8288102531929,24.6641650382126,3.63237069305331,0.147515639737226,4,13.9133680555556,29.9
3.53333333333333,11.8293390833645,24.7877066049741,3.78022878263142,0.147858089578111,4,13.9133680555556,29.9
3.56666666666667,11.8298866415652,24.9161788561972,3.92817295794846,0.147944175317038,4,13.9133680555556,29.9
3.6,11.8304545909027,25.0495808766639,4.07599027206015,0.147817314111685,4,13.9133680555556,29.9
3.63333333333333,11.831044309975,25.1879060716089,4.22355273599732,0.147562463937176,4,13.9133680555556,29.9
3.66666666666667,11.8316568173108,25.331144822316,4.37080127979085,0.147248543793522,4,13.9133680555556,29.9
3.7,11.8322927480492,25.4792862344702,4.51771290695163,0.14691162716078,4,13.9133680555556,29.9
3.73333333333333,11.832952370805,25.6323187362588,4.66426368297022,0.14655077601859,4,13.9133680555556,29.9
3.76666666666667,11.8336356301741,25.7902289808342,4.81034590726393,0.146082224293717,4,13.9133680555556,29.9
3.8,11.8343421968223,25.9529975988416,4.9557343428124,0.145388435548465,4,13.9133680555556,29.9
3.83333333333333,11.8350715439486,26.12059858745,5.10027185642499,0.144537513612589,4,13.9133680555556,29.9
3.86666666666667,11.8358230399695,26.2930021490346,5.24388371564956,0.143611859224573,4,13.9133680555556,29.9
3.9,11.8365960316636,26.4701768766534,5.38654172153018,0.142658005880619,4,13.9133680555556,29.9
3.93333333333333,11.8373899093704,26.6520908175565,5.52823768885027,0.14169596732009,4,13.9133680555556,29.9
3.96666666666667,11.8382041511147,26.8387117044776,5.66895785156309,0.140720162712821,4,13.9133680555556,29.9
4,11.8390383448722,27.0300066354116,5.80867762123863,0.139719769675544,4,13.9133680555556,29.9
4.03333333333333,11.8398921913489,27.2259416203074,5.94735281796897,0.138675196730333,4,13.9133680555556,29.9
4.06666666666667,11.8407654857102,27.4264799641652,6.08482979858493,0.137476980615964,4,13.9133680555556,29.9
4.1,11.8416580655894,27.6315755001041,6.22075314850104,0.13592334991611,4,13.9133680555556,29.9
4.13333333333333,11.842569798054,27.8411761054538,6.35515206062837,0.134398912127333,4,13.9133680555556,29.9
4.16666666666667,11.8435005838614,28.0552312780578,6.48802391072823,0.132871850099854,4,13.9133680555556,29.9
4.2,11.8444503239685,28.273690115136,6.61938434786024,0.13136043713201,4,13.9133680555556,29.9
4.23333333333333,11.8454189502644,28.4965032343222,6.74929314893588,0.129908801075647,4,13.9133680555556,29.9
4.26666666666667,11.846406514197,28.7236240292184,6.87788875184896,0.128595602913076,4,13.9133680555556,29.9
4.3,11.8474130424079,28.9550139713494,7.0055066462501,0.127617894401141,4,13.9133680555556,29.9
4.33333333333333,11.8484393682647,29.1906457420216,7.13242901324821,0.126922366998108,4,13.9133680555556,29.9
4.36666666666667,11.8494890722206,29.4304983344596,7.25877996285407,0.126350949605863,4,13.9133680555556,29.9
4.4,11.8505658445885,29.6745543733107,7.38464405690178,0.125864094047706,4,13.9133680555556,29.9
4.43333333333333,11.8516747217557,29.9227977870612,7.51003340673516,0.125389349833381,4,13.9133680555556,29.9
4.46666666666667,11.8528199927319,30.1752131918067,7.63496150479605,0.124928098060894,4,13.9133680555556,29.9
4.5,11.8540069909158,30.4317832854969,7.75930036766112,0.124338862865065,4,13.9133680555556,29.9
4.53333333333333,11.8552399658267,30.6924867499676,7.88296959442439,0.123669226763273,4,13.9133680555556,29.9
4.56666666666667,11.8565239936934,30.9573008739163,8.00594597037139,0.122976375947003,4,13.9133680555556,29.9
4.6,11.8578621866804,31.2262019777555,8.12819748024653,0.12225150987514,4,13.9133680555556,29.9
4.63333333333333,11.859256011671,31.4992262901125,8.25488058345157,0.126683103205041,4,13.9133680555556,29.9
4.66666666666667,11.8607067055887,31.7765790090956,8.38694666440179,0.132066080950219,4,13.9133680555556,29.9
4.7,11.8622145954505,32.0583540216257,8.51959835151681,0.132651687115013,4,13.9133680555556,29.9
4.73333333333333,11.8637793559664,32.3445170139274,8.64987477308972,0.130276421572916,4,13.9133680555556,29.9
4.76666666666667,11.8654004082334,32.6349585418731,8.7761393561778,0.12626458308808,4,13.9133680555556,29.9
4.8,11.8670771281407,32.9295299226627,8.89757470541642,0.121435349238615,4,13.9133680555556,29.9
4.83333333333333,11.8688089203646,33.2280620743478,9.01377714634422,0.116202440927809,4,13.9133680555556,29.9
4.86666666666667,11.8705952604082,33.5303800553396,9.12475546292982,0.110978316585593,4,13.9133680555556,29.9
4.9,11.872435714369,33.8363115429618,9.23062941960214,0.105873956672324,4,13.9133680555556,29.9
4.93333333333333,11.8743299407455,34.1456894555838,9.33159386260567,0.100964443003525,4,13.9133680555556,29.9
4.96666666666667,11.8762776974244,34.4583539461282,9.42787625447335,0.0962823918676872,4,13.9133680555556,29.9
5,11.8782788379178,34.7741521911717,9.51966579000725,0.0917895355338985,4,13.9133680555556,29.9
5.03333333333333,11.8803332943474,35.0929366644917,9.6070682889588,0.0874024989515494,4,13.9133680555556,29.9
5.06666666666667,11.8824410496489,35.4145628391751,9.69024636255689,0.0831780735980931,4,13.9133680555556,29.9
5.1,11.8846021602105,35.738896180626,9.76957221892026,0.0793258563633632,4,13.9133680555556,29.9
5.13333333333333,11.8868167461207,36.0658139475643,9.84539009695391,0.0758178780336483,4,13.9133680555556,29.9
5.16666666666667,11.8890849724323,36.3952052527243,9.91806174676512,0.0726716498112108,4,13.9133680555556,29.9
5.2,11.8914070338652,36.7269709779807,9.98793505804712,0.069873311282004,4,13.9133680555556,29.9
5.23333333333333,11.8937831500886,37.0610243123576,10.0554106372681,0.0674755792209965,4,13.9133680555556,29.9
5.26666666666667,11.8962135757011,37.3972924073855,10.1209038880647,0.06549325079658,4,13.9133680555556,29.9
5.3,11.8986985943485,37.7357147158553,10.1847202930804,0.0638164050157091,4,13.9133680555556,29.9
5.33333333333333,11.9012384946363,38.076238186215,10.2470125585938,0.0622922655133458,4,13.9133680555556,29.9
5.36666666666667,11.9038335534881,38.4188134768649,10.3078553838547,0.0608428252609112,4,13.9133680555556,29.9
5.4,11.9064840254144,38.763392190998,10.3672338257981,0.0593784419434833,4,13.9133680555556,29.9
5.43333333333333,11.9091901361319,39.1099250183853,10.4251168549125,0.0578830291143753,4,13.9133680555556,29.9
