Time,x_ego,y_ego,velocity,acceleration,action,x_ped,y_ped
0,11.8,8.9,5,0,1,15.5,29.9
0.0333333333333333,11.800002440957,9.06660768883987,4.99642261869917,-0.00357738130082641,1,15.4502170138889,29.9
0.0666666666666667,11.8000181003957,9.23309265302348,4.9926476197977,-0.00377499890147615,1,15.4008680555556,29.9
0.1,11.8000562905291,9.39944929606501,4.9887314942227,-0.00391612557499599,1,15.351953125,29.9
0.133333333333333,11.8001223766037,9.56567362054341,4.98471470526732,-0.00401678895537838,1,15.3034722222222,29.9
0.166666666666667,11.8002178738968,9.73176277474534,4.98062618616611,-0.00408851910121122,1,15.2554253472222,29.9
0.2,11.8003398707512,9.89771472859712,4.97648663353835,-0.00413955262775989,1,15.2078125,29.9
0.233333333333333,11.8004841961505,10.0635280416752,4.97231090591933,-0.0041757276190193,1,15.1606336805556,29.9
0.266666666666667,11.800646708786,10.229201696811,4.96810967283866,-0.00420123308066778,1,15.1138888888889,29.9
0.3,11.800823662455,10.3947349806107,4.96389059890968,-0.00421907392898646,1,15.067578125,29.9
0.333333333333333,11.8010118758909,10.5601273975607,4.95965918871582,-0.0042314101938592,1,15.0217013888889,29.9
0.366666666666667,11.8012087816556,10.7253786082608,4.95541939289176,-0.00423979582406098,1,14.9762586805556,29.9
0.4,11.8014124180227,10.8904883850278,4.95117404466873,-0.00424534822303091,1,14.93125,29.9
0.433333333333333,11.80162140476,11.0554565800147,4.94692517474273,-0.00424886992599838,1,14.8866753472222,29.9
0.466666666666667,11.8018349185636,11.2202831023445,4.94267423811184,-0.00425093663088916,1,14.8425347222222,29.9
0.5,11.8020526644694,11.3849679017339,4.93842227706976,-0.00425196104208414,1,14.798828125,29.9
0.533333333333333,11.8022748300354,11.5495109567894,4.934170038025,-0.00425223904475658,1,14.7555555555556,29.9
0.566666666666667,11.8025020097388,11.7139122666677,4.92991805511099,-0.00425198291400974,1,14.7127170138889,29.9
0.6,11.8027350951354,11.8781718451593,4.9256667100351,-0.00425134507588787,1,14.6703125,29.9
0.633333333333333,11.8029751375098,12.0422897165161,4.92141627496386,-0.00425043507124112,1,14.6283420138889,29.9
0.666666666666667,11.8032231996007,12.2062659125277,4.91716694328994,-0.00424933167392361,1,14.5868055555556,29.9
0.7,11.803480218231,12.3701004704832,4.91291885174836,-0.00424809154157746,1,14.545703125,29.9
0.733333333333333,11.8037468989288,12.5337934317478,4.90867209639706,-0.00424675535129637,1,14.5050347222222,29.9
0.766666666666667,11.8040236574287,12.6973448407536,4.9044267442879,-0.00424535210916499,1,14.4648003472222,29.9
0.8,11.8043106133007,12.8607547442584,4.90018284210381,-0.00424390218408544,1,14.425,29.9
0.833333333333333,11.8046076306027,13.024023190774,4.89594042258138,-0.0042424195224342,1,14.3856336805556,29.9
0.866666666666667,11.8049143919986,13.1871502301024,4.89169950919873,-0.00424091338265153,1,14.3467013888889,29.9
0.9,11.805230488048,13.3501359129508,4.88746011942134,-0.00423938977738914,1,14.308203125,29.9
0.933333333333333,11.8055555030518,13.5129802906136,4.88322226675261,-0.004237852668731,1,14.2701388888889,29.9
0.966666666666667,11.8058890824592,13.6756834147208,4.87898596187035,-0.00423630488225868,1,14.2325086805556,29.9
1,11.8062309730565,13.8382453370555,4.87475121316427,-0.00423474870607343,1,14.1953125,29.9
1.03333333333333,11.8065810342177,14.0006661094372,4.87051802697085,-0.00423318619342616,1,14.1585503472222,29.9
1.06666666666667,11.8069392246921,14.1629457836645,4.86628640772757,-0.00423161924328141,1,14.1222222222222,29.9
1.1,11.8073055735135,14.3250844115023,4.86205635817024,-0.00423004955732953,1,14.086328125,29.9
1.13333333333333,11.8076801450777,14.4870820446982,4.85782787961058,-0.00422847855966157,1,14.0508680555556,29.9
1.16666666666667,11.8080630074093,14.6489387350085,4.85360097227687,-0.00422690733370867,1,14.0158420138889,29.9
1.2,11.8084542098204,14.8106545342218,4.8493756356762,-0.0042253366006646,1,13.98125,29.9
1.23333333333333,11.8088537725406,14.9722294941688,4.84515186893244,-0.00422376674376324,1,13.9470920138889,29.9
1.26666666666667,11.8092616874664,15.1336636667178,4.84092967106031,-0.0042221978721253,1,13.9133680555556,29.9
1.3,11.8096779267053,15.2949571037568,4.83670904114918,-0.00422062991113403,1,13.9133680555556,29.9
1.33333333333333,11.8101024544611,15.4561098571691,4.83248997844789,-0.00421906270128947,1,13.9133680555556,29.9
1.36666666666667,11.8105352380221,15.6171219788107,4.82827248236205,-0.00421749608583877,1,13.9133680555556,29.9
1.4,11.8109762548477,15.7779935204936,4.82405655239098,-0.00421592997106934,1,13.9133680555556,29.9
1.43333333333333,11.8114254944825,15.9387245339807,4.81984218803935,-0.00421436435163081,1,13.9133680555556,29.9
1.46666666666667,11.8118829557308,16.0993150709898,4.8156293887363,-0.00421279930304763,1,13.9133680555556,29.9
1.5,11.8123486407724,16.2597651832066,4.81141815378482,-0.00421123495148201,1,13.9133680555556,29.9
1.53333333333333,11.8128225484589,16.4200749222993,4.8072084823508,-0.00420967143402073,1,13.9133680555556,29.9
1.56666666666667,11.8133046688847,16.5802443399323,4.80300037348868,-0.0042081088621222,1,13.9133680555556,29.9
1.6,11.813794980652,16.7402734877736,4.79879382619138,-0.00420654729729897,1,13.9133680555556,29.9
1.63333333333333,11.8142934513017,16.900162417495,4.7945888394482,-0.00420498674318104,1,13.9133680555556,29.9
1.66666666666667,11.8148000404676,17.0599111807651,4.79038541229464,-0.0042034271535627,1,13.9133680555556,29.9
1.7,11.8153147046525,17.2195198292372,4.7861835438428,-0.00420186845183679,1,13.9133680555556,29.9
1.73333333333333,11.8158374022525,17.3789884145367,4.7819832332875,-0.00420031055529879,1,13.9133680555556,29.9
1.76666666666667,11.8163680975761,17.5383169882485,4.77778447989024,-0.00419875339726516,1,13.9133680555556,29.9
1.8,11.8169067630272,17.6975056019109,4.77358728294853,-0.00419719694170517,1,13.9133680555556,29.9
1.83333333333333,11.8174532952496,17.8565252413779,4.76764773021327,-0.00593955273525903,1,13.9133680555556,29.9
1.86666666666667,11.8180070840067,18.015173593863,4.75131192665041,-0.0163358035628605,1,13.9133680555556,29.9
1.9,11.8185674948159,18.173248746638,4.73325753128894,-0.0180543953614754,3,13.9133680555556,29.9
1.93333333333333,11.8191343733837,18.3307221321591,4.71520763395397,-0.0180498973349694,3,13.9133680555556,29.9
1.96666666666667,11.8197076288618,18.4875939108754,4.69716285123774,-0.018044782716224,3,13.9133680555556,29.9
2,11.8202871524038,18.6438642606475,4.67912362313158,-0.0180392281061614,3,13.9133680555556,29.9
2.03333333333333,11.8208729141709,18.7995620740562,4.66281237430269,-0.0163112488288908,1,13.9133680555556,29.9
2.06666666666667,11.8214655400643,18.9549186167751,4.65864893512058,-0.00416343918210771,1,13.9133680555556,29.9
2.1,11.8220655923676,19.1101364169479,4.65448950750688,-0.00415942761369781,1,13.9133680555556,29.9
2.13333333333333,11.8226730088773,19.2652155961996,4.65033337666333,-0.00415613084355648,1,13.9133680555556,29.9
2.16666666666667,11.8232877544549,19.4201562560105,4.64618003688885,-0.00415333977448018,1,13.9133680555556,29.9
2.2,11.8239098177173,19.5749584833959,4.64202913445875,-0.00415090243009519,1,13.9133680555556,29.9
2.23333333333333,11.8245392055747,19.7296223549874,4.63788042314423,-0.00414871131452532,1,13.9133680555556,29.9
2.26666666666667,11.8251759364426,19.8841479399681,4.63373372971334,-0.00414669343088381,1,13.9133680555556,29.9
2.3,11.8258200331259,20.0385353021861,4.62958892828225,-0.00414480143109586,1,13.9133680555556,29.9
2.33333333333333,11.8264715163705,20.1927845016749,4.62544592275831,-0.00414300552393865,1,13.9133680555556,29.9
2.36666666666667,11.8271303998951,20.3468955957463,4.62130463630498,-0.00414128645332479,1,13.9133680555556,29.9
2.4,11.8277966873976,20.5008686397726,4.61716500624296,-0.00413963006201978,1,13.9133680555556,29.9
2.43333333333333,11.8284703716458,20.6547036877437,4.61302698245218,-0.00413802379078554,1,13.9133680555556,29.9
2.46666666666667,11.8291514354013,20.808400792661,4.60889052734404,-0.00413645510813776,1,13.9133680555556,29.9
2.5,11.8298398536554,20.9619600068142,4.60475561584211,-0.00413491150193401,1,13.9133680555556,29.9
2.53333333333333,11.8305361397802,21.1153813797963,4.60062226019678,-0.00413335564532957,1,13.9133680555556,29.9
2.56666666666667,11.8312426781631,21.2686649530999,4.59649047131187,-0.00413178888490595,1,13.9133680555556,29.9
2.6,11.8319621305531,21.4218107662739,4.59236026668904,-0.00413020462283598,1,13.9133680555556,29.9
2.63333333333333,11.8326982559957,21.5748188534425,4.58823166056149,-0.00412860612754251,1,13.9133680555556,29.9
2.66666666666667,11.8334543311614,21.7276892496222,4.58410466839904,-0.00412699216245294,1,13.9133680555556,29.9
2.7,11.8342341086361,21.88042198662,4.57997929575104,-0.00412537264799884,1,13.9133680555556,29.9
2.73333333333333,11.8350398546844,22.0330171013451,4.57585549829641,-0.00412379745463376,1,13.9133680555556,29.9
2.76666666666667,11.8358720794819,22.1854746375153,4.57173322544436,-0.00412227285204914,1,13.9133680555556,29.9
2.8,11.8367299839028,22.337794644416,4.56761243054591,-0.00412079489844341,1,13.9133680555556,29.9
2.83333333333333,11.8376113329497,22.4899768149361,4.56347122485051,-0.00414120569540444,1,13.9133680555556,29.9
2.86666666666667,11.8385103570185,22.6417901476056,4.54548905371131,-0.0179821711391988,1,13.9133680555556,29.9
2.9,11.8394196887801,22.7926581676502,4.506757789732,-0.0387312639793072,3,13.9133680555556,29.9
2.93333333333333,11.840332897696,22.9420332043591,4.45591381712,-0.0508439726120091,3,13.9133680555556,29.9
2.96666666666667,11.8412456488563,23.0896271172361,4.39989292562232,-0.0560208914976714,3,13.9133680555556,29.9
3,11.8421542213278,23.2351231657165,4.33004382788548,-0.0698490977368458,3,13.9133680555556,29.9
3.03333333333333,11.843054492216,23.3780030782781,4.24292617064468,-0.0871176572407952,3,13.9133680555556,29.9
3.06666666666667,11.8439426619731,23.5177200198493,4.14026675775363,-0.102659412891049,3,13.9133680555556,29.9
3.1,11.8448160442639,23.653871181544,4.02898068290789,-0.111286074845748,3,13.9133680555556,29.9
3.13333333333333,11.8456733013456,23.7862555347853,3.91426003477925,-0.114720648128634,3,13.9133680555556,29.9
3.16666666666667,11.8465134377875,23.9147012249467,3.79266336817555,-0.121596666603699,3,13.9133680555556,29.9
3.2,11.8473357161387,24.0390651934791,3.6693596729699,-0.123303695205652,3,13.9133680555556,29.9
3.23333333333333,11.8481398849479,24.1592909273432,3.54437234745484,-0.124987325515064,3,13.9133680555556,29.9
3.26666666666667,11.8489257723645,24.275351034788,3.41942459316546,-0.124947754289376,3,13.9133680555556,29.9
3.3,11.8496933692944,24.3872755678132,3.29623905641938,-0.12318553674608,3,13.9133680555556,29.9
3.33333333333333,11.8504422690071,24.4950658979063,3.17137157332057,-0.124867483098812,3,13.9133680555556,29.9
3.36666666666667,11.851171802162,24.5987234128421,3.0482667830136,-0.123104790306967,3,13.9133680555556,29.9
3.4,11.8518810352766,24.6982495086572,2.92348057445599,-0.124786208557609,3,13.9133680555556,29.9
3.43333333333333,11.8525688178367,24.7936455868952,2.80045776910527,-0.123022805350718,3,13.9133680555556,29.9
3.46666666666667,11.8532340288851,24.8849417514277,2.67747655039972,-0.122981218705551,3,13.9133680555556,29.9
3.5,11.8538753247278,24.9721393990034,2.55453731591349,-0.122939234486234,3,13.9133680555556,29.9
3.53333333333333,11.8544915919815,25.0552689861961,2.43338429914066,-0.121153016772832,3,13.9133680555556,29.9
3.56666666666667,11.8550820448555,25.1343896609301,2.31399560577901,-0.119388693361644,3,13.9133680555556,29.9
3.6,11.8556457613084,25.2095029162016,2.19295606667164,-0.121039539107374,3,13.9133680555556,29.9
3.63333333333333,11.8561819312154,25.2805903277652,2.07265266782628,-0.120303398845356,3,13.9133680555556,29.9
3.66666666666667,11.8566905480239,25.3477263145708,1.95601100389901,-0.116641663927278,3,13.9133680555556,29.9
3.7,11.8571719574162,25.4110136419355,1.84176082171045,-0.114250182188552,3,13.9133680555556,29.9
3.73333333333333,11.8576264880439,25.4705335913156,1.72996431063382,-0.111796511076631,3,13.9133680555556,29.9
3.76666666666667,11.8580543495445,25.5263381557832,1.61882090226774,-0.111143408366084,3,13.9133680555556,29.9
3.8,11.8584559568601,25.5785054614393,1.51171980134473,-0.107101100923005,3,13.9133680555556,29.9
3.83333333333333,11.8588319108352,25.6271406112545,1.40687280409422,-0.104846997250513,3,13.9133680555556,29.9
3.86666666666667,11.8591826030926,25.6723176729163,1.30422062104332,-0.102652183050895,3,13.9133680555556,29.9
3.9,11.8595084037749,25.7141089298772,1.20370282582148,-0.100517795221843,3,13.9133680555556,29.9
3.93333333333333,11.8598096591273,25.7525843547161,1.10525282568401,-0.0984500001374693,3,13.9133680555556,29.9
3.96666666666667,11.860086509303,25.7877839450266,1.00715570953664,-0.0980971161473718,3,13.9133680555556,29.9
4,11.8603393023998,25.8197784596841,0.912953358254149,-0.0942023512824915,3,13.9133680555556,29.9
4.03333333333333,11.8605684106418,25.8486413975202,0.819247977889693,-0.0937053803644563,3,13.9133680555556,29.9
4.06666666666667,11.8607742121547,25.8744454068128,0.729386862246051,-0.0898611156436412,3,13.9133680555556,29.9
4.1,11.8609572664194,25.8972878113605,0.641528785891954,-0.0878580763540975,3,13.9133680555556,29.9
4.13333333333333,11.8611179345392,25.9172344411596,0.555638826538277,-0.0858899593536767,3,13.9133680555556,29.9
4.16666666666667,11.8612565948287,25.9343514098929,0.471748243347504,-0.0838905831907728,3,13.9133680555556,29.9
4.2,11.8613734484012,25.9486769092433,0.388144202358013,-0.0836040409894918,3,13.9133680555556,29.9
4.23333333333333,11.8614689012152,25.9602772239442,0.308219793049068,-0.0799244093089445,3,13.9133680555556,29.9
4.26666666666667,11.8615435506909,25.9692449512057,0.230171655292438,-0.0780481377566301,3,13.9133680555556,29.9
4.3,11.8615977912467,25.9756416666233,0.153962525957109,-0.0762091293353288,3,13.9133680555556,29.9
4.33333333333333,11.8616320357701,25.9795304363092,0.0797149540742606,-0.0742475718828487,3,13.9133680555556,29.9
4.36666666666667,11.8616467342705,25.9809787566711,0.00754917337056717,-0.0721657807036934,3,13.9133680555556,29.9
4.4,11.8616438638913,25.9802752720031,0.0306049113688006,0.0230557379982334,4,13.9133680555556,29.9
4.43333333333333,11.8616361796662,25.9792551393821,0.000644409120087913,-0.0299605022487127,3,13.9133680555556,29.9
4.46666666666667,11.8616361796662,25.9792551393821,0.00149477159512384,0.000850362475035923,5,13.9133680555556,29.9
4.5,11.8616361796662,25.9792551393821,0.00256148579174583,0.00106671419662199,5,13.9133680555556,29.9
4.53333333333333,11.8616361796662,25.9792551393821,0.00375715233541041,0.00119566654366457,5,13.9133680555556,29.9
4.56666666666667,11.8616361796662,25.9792551393821,0.00497451157810294,0.00121735924269253,5,13.9133680555556,29.9
4.6,11.8616361796662,25.9792551393821,0.00610094936016168,0.00112643778205874,5,13.9133680555556,29.9
4.63333333333333,11.8616361796662,25.9792551393821,0.00703138281441042,0.000930433454248735,5,13.9133680555556,29.9
4.66666666666667,11.8616361796662,25.9792551393821,0.00767866406249002,0.0006472812480796,5,13.9133680555556,29.9
4.7,11.8616361796662,25.9792551393821,0.00798098061231927,0.000302316549829254,5,13.9133680555556,29.9
4.73333333333333,11.8616361796662,25.9792551393821,0.00790605645075256,-7.49241615667084e-05,5,13.9133680555556,29.9
4.76666666666667,11.8616361796662,25.9792551393821,0.00745224560110877,-0.000453810849643795,5,13.9133680555556,29.9
4.8,11.8616361796662,25.9792551393821,0.00664684495517155,-0.000805400645937222,5,13.9133680555556,29.9
4.83333333333333,11.8616361796662,25.9792551393821,0.00554212651512428,-0.00110471844004727,5,13.9133680555556,29.9
4.86666666666667,11.8616361796662,25.9792551393821,0.00420969775044924,-0.00133242876467503,5,13.9133680555556,29.9
4.9,11.8616361796662,25.9792551393821,0.00273384472398041,-0.00147585302646883,5,13.9133680555556,29.9
4.93333333333333,11.8616361796662,25.9792551393821,0.00130305286428573,-0.00143079185969468,5,13.9133680555556,29.9
4.96666666666667,11.8616400432215,25.9798156095608,0.0312561005148477,0.0299530476505619,4,13.9133680555556,29.9
5,11.8616531077053,25.981710762833,0.0823805257811114,0.0511244252662637,4,13.9133680555556,29.9
5.03333333333333,11.8616778583251,25.9852999487434,0.132854351507189,0.050473825726078,4,13.9133680555556,29.9
5.06666666666667,11.8617141355658,25.9905566814804,0.182401808142736,0.0495474566355462,4,13.9133680555556,29.9
5.1,11.8617617494757,25.9974468749675,0.230836942888366,0.0484351347456301,4,13.9133680555556,29.9
5.13333333333333,11.861820505275,26.0059316787604,0.27807583120852,0.0472388883201539,4,13.9133680555556,29.9
5.16666666666667,11.8618902378906,26.0159718161025,0.324164814910513,0.0460889837019935,4,13.9133680555556,29.9
5.2,11.8619708308932,26.027529901332,0.369160009987261,0.0449951950767479,4,13.9133680555556,29.9
5.23333333333333,11.8620622159782,26.0405702044044,0.413105756237913,0.0439457462506523,4,13.9133680555556,29.9
5.26666666666667,11.8621643698267,26.0550583299558,0.456037855244777,0.0429320990068635,4,13.9133680555556,29.9
5.3,11.8622773088019,26.0709608922599,0.497976594985941,0.0419387397411637,4,13.9133680555556,29.9
5.33333333333333,11.862401078342,26.0882447332098,0.538917810211654,0.0409412152257129,4,13.9133680555556,29.9
5.36666666666667,11.8625357433098,26.1068765785604,0.578860883368147,0.0399430731564933,4,13.9133680555556,29.9
5.4,11.8626813804367,26.1268232643295,0.617812409927068,0.0389515265589214,4,13.9133680555556,29.9
5.43333333333333,11.8628380691088,26.1480519347127,0.655784124629674,0.037971714702606,4,13.9133680555556,29.9
5.46666666666667,11.8630058808224,26.1705301867937,0.692792427412511,0.0370083027828366,4,13.9133680555556,29.9
5.5,11.8631848702478,26.194226501233,0.72888038817676,0.0360879607642489,4,13.9133680555556,29.9
5.53333333333333,11.8633750708925,26.219111292638,0.764113302478937,0.0352329143021773,4,13.9133680555556,29.9
5.56666666666667,11.8635764850286,26.2451569831253,0.798545358005169,0.0344320555262315,4,13.9133680555556,29.9
5.6,11.8637890721342,26.2723376222408,0.83222050174828,0.0336751437431119,4,13.9133680555556,29.9
5.63333333333333,11.8640127401607,26.3006285942116,0.865175039763439,0.0329545380151584,4,13.9133680555556,29.9
5.66666666666667,11.8642473400058,26.3300063989487,0.897439569086912,0.0322645293234733,4,13.9133680555556,29.9
5.7,11.8644926630611,26.3604484378136,0.929033405983548,0.0315938368966356,4,13.9133680555556,29.9
5.73333333333333,11.8647484366889,26.3919320450243,0.959931242906808,0.0308978369232604,4,13.9133680555556,29.9
5.76666666666667,11.865014324381,26.4244337334627,0.990136022784134,0.0302047798773258,4,13.9133680555556,29.9
5.8,11.8652899675964,26.457933916062,1.01992282441631,0.029786801632175,4,13.9133680555556,29.9
5.83333333333333,11.8655750811731,26.4924287216444,1.04995546282356,0.0300326384072538,4,13.9133680555556,29.9
5.86666666666667,11.8658695535505,26.5279419274486,1.08121293214143,0.0312574693178713,4,13.9133680555556,29.9
5.9,11.8661735304816,26.5645340198362,1.11490976409783,0.0336968319563999,4,13.9133680555556,29.9
5.93333333333333,11.8664874863921,26.6023090430207,1.15242139338936,0.0375116292915272,4,13.9133680555556,29.9
5.96666666666667,11.8668122586331,26.6414158760621,1.19500223694875,0.0425808435593873,4,13.9133680555556,29.9
6,11.8671490128054,26.6820396922029,1.24356810399305,0.048565867044305,4,13.9133680555556,29.9
6.03333333333333,11.8674991920851,26.7243912313051,1.29875581002585,0.0551877060327965,4,13.9133680555556,29.9
6.06666666666667,11.8678644832569,26.7686986344375,1.36097233356072,0.0622165235348662,4,13.9133680555556,29.9
6.1,11.8682467813769,26.8151995401965,1.43037161075162,0.0693992771909064,4,13.9133680555556,29.9
6.13333333333333,11.868648141296,26.8641321026257,1.50684500270154,0.0764733919499221,4,13.9133680555556,29.9
