Time,x_ego,y_ego,velocity,acceleration,action,x_ped,y_ped
0,11.8,15.9,5,0,1,15.5,29.9
0.0333333333333333,11.8,16.0666076888419,4.99642261439338,-0.0035773856066168,1,15.3694444444444,29.9
0.0666666666666667,11.8,16.2330926531145,4.99264756783477,-0.00377504655861216,1,15.2444444444444,29.9
0.1,11.8,16.399449296924,4.98873130122091,-0.00391626661385835,1,15.125,29.9
0.133333333333333,11.8,16.5656736245138,4.98471426828108,-0.00401703293983147,1,15.0111111111111,29.9
0.166666666666667,11.8,16.7317627870126,4.98062546389497,-0.00408880438611448,1,14.9027777777778,29.9
0.2,11.8,16.8977147575669,4.97648566969706,-0.00413979419790333,1,14.8,29.9
0.233333333333333,11.8,17.063528098494,4.97230978036584,-0.00417588933122204,1,14.7027777777778,29.9
0.266666666666667,11.8,17.2292017943893,4.96810847105553,-0.00420130931030815,1,14.6111111111111,29.9
0.3,11.8000036547316,17.3947351325019,4.9638894023452,-0.00421906871033073,1,14.525,29.9
0.333333333333333,11.8000271097358,17.560127616816,4.95965814589721,-0.00423125644799427,1,14.4444444444444,29.9
0.366666666666667,11.8000849153552,17.7253789056187,4.9554187663888,-0.00423937950840703,1,14.3694444444444,29.9
0.4,11.8001877060803,17.8904887658827,4.95117415173871,-0.00424461465008807,1,14.3,29.9
0.433333333333333,11.800340871009,18.0554570408188,4.94692625678824,-0.00424789495047051,1,14.2361111111111,29.9
0.466666666666667,11.8005452051404,18.2202836278778,4.94267637983113,-0.00424987695711732,1,14.1777777777778,29.9
0.5,11.8007982919566,18.38496846433,4.93842539835369,-0.00425098147743519,1,14.125,29.9
0.533333333333333,11.8010957422949,18.5495115177669,4.93417393828423,-0.00425146006946253,1,14.0777777777778,29.9
0.566666666666667,11.8014321856994,18.7139127794514,4.92992247609574,-0.00425146218848749,1,14.0361111111111,29.9
0.6,11.8018019976251,18.8781722591847,4.9256713913103,-0.00425108478544178,1,14,29.9
0.633333333333333,11.8021997999723,19.0422899809963,4.92142099070344,-0.00425040060685422,1,13.9694444444444,29.9
0.666666666666667,11.8026207933001,19.206265979395,4.91717152031021,-0.00424947039323875,1,13.9444444444444,29.9
0.7,11.8030609743439,19.3701002961327,4.91292317390027,-0.00424834640993144,1,13.925,29.9
0.733333333333333,11.8035172736626,19.5337929775059,4.90867610095258,-0.00424707294769622,1,13.9111111111111,29.9
0.766666666666667,11.8039876269567,19.6973440722168,4.90443041433763,-0.00424568661495073,1,13.9027777777778,29.9
0.8,11.8044708831205,19.8606954983952,4.89669837969578,-0.0077320346418519,1,13.9,29.9
0.833333333333333,11.8049667605228,20.0237604822079,4.88724630409262,-0.00945207560315175,1,13.9,29.9
0.866666666666667,11.8054745317907,20.1858182701391,4.83626997922151,-0.050976324871117,3,13.9,29.9
0.9,11.8059928374419,20.3456581250046,4.75417414920265,-0.0820958300188526,3,13.9,29.9
0.933333333333333,11.8065216655043,20.502530958766,4.65825290918826,-0.0959212400143974,3,13.9,29.9
0.966666666666667,11.8070634875166,20.6560915437344,4.55544435656564,-0.102808552622614,3,13.9,29.9
1,11.8076207012146,20.8061099939402,4.44573143354822,-0.109712923017426,3,13.9,29.9
1.03333333333333,11.8081960289535,20.9523852630554,4.33086211777023,-0.114869315777982,3,13.9,29.9
1.06666666666667,11.8087907016566,21.0948319602355,4.21602769591698,-0.114834421853254,3,13.9,29.9
1.1,11.8094040064552,21.2334225506852,4.09950779393776,-0.116519901979221,3,13.9,29.9
1.13333333333333,11.8100333260077,21.3680430936264,3.97783757450001,-0.121670219437748,3,13.9,29.9
1.16666666666667,11.810674656425,21.4985219414157,3.85101828434098,-0.12681929015903,3,13.9,29.9
1.2,11.8113232973379,21.6247162098335,3.72077322935639,-0.130245054984595,3,13.9,29.9
1.23333333333333,11.8119742589231,21.7465117709463,3.58710341741681,-0.133669811939575,3,13.9,29.9
1.26666666666667,11.8126225044919,21.8637945431891,3.45000991344065,-0.137093503976156,3,13.9,29.9
1.3,11.8132630918684,21.976421783825,3.30777180509357,-0.142238108347083,3,13.9,29.9
1.33333333333333,11.8138914357164,22.0842511549588,3.16213458312654,-0.145637221967027,3,13.9,29.9
1.36666666666667,11.8145035094077,22.187169059911,3.01307797715543,-0.14905660597111,3,13.9,29.9
1.4,11.8150959082856,22.2850906384376,2.8623474221255,-0.150730555029932,3,13.9,29.9
1.43333333333333,11.8156658716322,22.3779597596514,2.70992231995979,-0.152425102165713,3,13.9,29.9
1.46666666666667,11.8162112809186,22.4657490150382,2.55754755518049,-0.152374764779299,3,13.9,29.9
1.5,11.816730508761,22.5484313709635,2.40350147849659,-0.154046076683903,3,13.9,29.9
1.53333333333333,11.8172225017128,22.6260085038484,2.25122871256042,-0.152272765936163,3,13.9,29.9
1.56666666666667,11.8176867348858,22.6985132957086,2.09930977981527,-0.151918932745153,3,13.9,29.9
1.6,11.8181228417165,22.7659511011523,1.94744516043644,-0.151864619378828,3,13.9,29.9
1.63333333333333,11.8185308030292,22.8283694580757,1.79820683883933,-0.149238321597111,3,13.9,29.9
1.66666666666667,11.8189109987141,22.8858888288191,1.65350772701756,-0.144699111821774,3,13.9,29.9
1.7,11.8192636865691,22.9386030572489,1.50989954354593,-0.143608183471624,3,13.9,29.9
1.73333333333333,11.81958894897,22.9865773102825,1.36910326487444,-0.14079627867149,3,13.9,29.9
1.76666666666667,11.8198869389279,23.0299050347846,1.23110069815571,-0.138002566718735,3,13.9,29.9
1.8,11.8201577427725,23.0686786412931,1.09584432742735,-0.135256370728359,3,13.9,29.9
1.83333333333333,11.8204013949903,23.1029897105411,0.963364968087207,-0.132479359340142,3,13.8991319444444,29.9
1.86666666666667,11.8206179206,23.1329332489548,0.83380422731807,-0.129560740769137,3,13.8965277777778,29.9
1.9,11.8208074988569,23.1586354668395,0.708855691513814,-0.124948535804256,3,13.8921875,29.9
1.93333333333333,11.8209701700458,23.180190319628,0.584943166814666,-0.123912524699149,3,13.8861111111111,29.9
1.96666666666667,11.8211060054999,23.1976895894244,0.465525099325808,-0.119418067488858,3,13.8782986111111,29.9
2,11.8212154307705,23.2112841388466,0.350649044062985,-0.114876055262823,3,13.86875,29.9
2.03333333333333,11.821298933324,23.2211238248792,0.240208204989449,-0.110440839073537,3,13.8574652777778,29.9
2.06666666666667,11.8213572008502,23.2273838072891,0.135865771097252,-0.104342433892197,3,13.8444444444444,29.9
2.1,11.8213908458148,23.2302111205299,0.0342963020343605,-0.101569469062891,3,13.8296875,29.9
2.13333333333333,11.8214020956345,23.2300547166292,0.0176622623179087,-0.0166340397164518,5,13.8131944444444,29.9
2.16666666666667,11.8214040470179,23.2294677889852,0.00172804372164499,-0.0159342185962637,5,13.7949652777778,29.9
2.2,11.8214040470179,23.2294677889852,0.00252216643792816,0.000794122716283169,5,13.775,29.9
2.23333333333333,11.8214040470179,23.2294677889852,0.00368306229478261,0.00116089585685444,5,13.7532986111111,29.9
2.26666666666667,11.8214040470179,23.2294677889852,0.00508915767937467,0.00140609538459206,5,13.7298611111111,29.9
2.3,11.8214040470179,23.2294677889852,0.00658747187955625,0.00149831420018158,5,13.7046875,29.9
2.33333333333333,11.8214040470179,23.2294677889852,0.00801507350929895,0.0014276016297427,5,13.6777777777778,29.9
2.36666666666667,11.8214040470179,23.2294677889852,0.0092181276904447,0.00120305418114575,5,13.6491319444444,29.9
2.4,11.8214040470179,23.2294677889852,0.0100672887457581,0.000849161055313446,5,13.61875,29.9
2.43333333333333,11.8214040470179,23.2294677889852,0.0104686932638308,0.000401404518072612,5,13.5866319444444,29.9
2.46666666666667,11.8214040470179,23.2294677889852,0.0103702824971771,-9.84107666536713e-05,5,13.5527777777778,29.9
2.5,11.8214040470179,23.2294677889852,0.0097636002846262,-0.000606682212550891,5,13.5171875,29.9
2.53333333333333,11.8214040470179,23.2294677889852,0.00868155146039025,-0.00108204882423595,5,13.4798611111111,29.9
2.56666666666667,11.8214040470179,23.2294677889852,0.00719285369279405,-0.0014886977675962,5,13.4407986111111,29.9
2.6,11.8214040470179,23.2294677889852,0.0053940691436763,-0.00179878454911775,5,13.4,29.9
2.63333333333333,11.8214040470179,23.2294677889852,0.00340016495018005,-0.00199390419349625,5,13.3574652777778,29.9
2.66666666666667,11.8214040470179,23.2294677889852,0.00133453295591842,-0.00206563199426163,5,13.3131944444444,29.9
2.7,11.8214040470179,23.2294677889852,0.000680686684865063,-0.000653846271053359,5,13.2671875,29.9
2.73333333333333,11.8214040470179,23.2294677889852,0.00253326985780995,0.00185258317294488,5,13.2194444444444,29.9
2.76666666666667,11.8214040470179,23.2294677889852,0.00402943931072658,0.00149616945291663,5,13.1699652777778,29.9
2.8,11.8214059618186,23.2298399220089,0.0193701340670957,0.0153406947563692,5,13.11875,29.9
2.83333333333333,11.8214114919352,23.2309146623181,0.0460769673288995,0.0267068332618037,4,13.0657986111111,29.9
2.86666666666667,11.8214219331278,23.2329427563556,0.0760864189759948,0.0300094516470953,4,13.0111111111111,29.9
2.9,11.8214372239463,23.2359093304586,0.102164194661408,0.0260777756854135,4,12.9546875,29.9
2.93333333333333,11.8214569972665,23.2397375153094,0.127644586383929,0.0254803917225203,4,12.8965277777778,29.9
2.96666666666667,11.8214813341982,23.2444344588958,0.154186761908868,0.0265421755249395,4,12.8366319444444,29.9
3,11.8215106230064,23.2500632594936,0.183481370873571,0.0292946089647032,4,12.775,29.9
3.03333333333333,11.8215451186452,23.2566564946749,0.212006222568866,0.028524851695295,4,12.7116319444444,29.9
3.06666666666667,11.821585540288,23.2643315566702,0.248366436150872,0.0363602135820052,4,12.6465277777778,29.9
3.1,11.8216332285201,23.2733198107444,0.290797277000564,0.0424308408496922,4,12.5796875,29.9
3.13333333333333,11.8216891245486,23.2837659570775,0.335844621967938,0.0450473449673741,4,12.5111111111111,29.9
3.16666666666667,11.8217536302633,23.2956990128583,0.380019977615483,0.044175355647545,4,12.4407986111111,29.9
3.2,11.8218267587059,23.3090609388441,0.421587333739796,0.0415673561243127,4,12.36875,29.9
3.23333333333333,11.8219084276045,23.3237644770398,0.460527356345346,0.0389400226055506,4,12.2949652777778,29.9
3.26666666666667,11.8219987493748,23.3397512952868,0.498587453468692,0.0380600971233455,4,12.2194444444444,29.9
3.3,11.8220980194514,23.3569919271619,0.53575540037607,0.037167946907378,4,12.1421875,29.9
3.33333333333333,11.8222065532831,23.3754565984862,0.572027033701335,0.0362716333252652,4,12.0631944444444,29.9
3.36666666666667,11.8223248234501,23.3951445580448,0.609147725157305,0.0371206914559704,4,11.9824652777778,29.9
3.4,11.8224532950561,23.4160550391442,0.645372908298181,0.0362251831408761,4,11.9,29.9
3.43333333333333,11.8225922596229,23.4381582259883,0.68070653130201,0.0353336230038285,4,11.8157986111111,29.9
3.46666666666667,11.8227419692871,23.461424628604,0.71517035207146,0.0344638207694498,4,11.7298611111111,29.9
3.5,11.8229026249069,23.4858260954177,0.748819374101635,0.0336490220301751,4,11.6421875,29.9
3.53333333333333,11.8230745141149,23.5113649968151,0.783425052760458,0.0346056786588235,4,11.5527777777778,29.9
3.56666666666667,11.8232578502838,23.5380454467588,0.817320920480138,0.0338958677196805,4,11.4616319444444,29.9
3.6,11.8234526102255,23.5658438710486,0.850512647281458,0.0331917268013193,4,11.36875,29.9
3.63333333333333,11.8236586767227,23.5947372025949,0.88302440197172,0.0325117546902622,4,11.2741319444444,29.9
3.66666666666667,11.8238758391227,23.6247031430174,0.914876899816548,0.0318524978448284,4,11.1777777777778,29.9
3.7,11.8241037950661,23.6557197307769,0.946061445476742,0.0311845456601932,4,11.0796875,29.9
3.73333333333333,11.8243421525257,23.6877640847936,0.9765412392166,0.0304797937398587,4,10.9798611111111,29.9
3.76666666666667,11.824590442635,23.7208123317091,1.00629510743143,0.0297538682148272,4,10.8782986111111,29.9
3.8,11.8248481396294,23.754840110952,1.0353139006776,0.0290187932461767,4,10.775,29.9
3.83333333333333,11.8251146830516,23.7898228943521,1.06359698694175,0.0282830862641472,4,10.6699652777778,29.9
3.86666666666667,11.8253895020034,23.825736264577,1.09115152624209,0.0275545393003354,4,10.5631944444444,29.9
3.9,11.825672040164,23.8625561354882,1.11799009193591,0.0268385656938255,4,10.4546875,29.9
3.93333333333333,11.8259617802163,23.9002589061742,1.14412999398726,0.0261399020513509,4,10.3444444444444,29.9
3.96666666666667,11.8262582678913,23.938821824841,1.1696076671099,0.0254776731226407,4,10.2324652777778,29.9
4,11.8265611344262,23.9782235742661,1.19446772681035,0.0248600597004422,4,10.11875,29.9
4.03333333333333,11.8268701112943,24.0184442109517,1.21874785622601,0.0242801294156685,4,10.0032986111111,29.9
4.06666666666667,11.8271850389119,24.0594649474999,1.24247995662779,0.023732100401771,4,9.88611111111111,29.9
4.1,11.8275058697395,24.1012679831121,1.26569147785716,0.0232115212293784,4,9.7671875,29.9
4.13333333333333,11.8278326653281,24.1438363722686,1.28840640912702,0.0227149312698598,4,9.64652777777778,29.9
4.16666666666667,11.8281655872652,24.1871539219323,1.3106460176355,0.0222396085084768,4,9.52413194444444,29.9
4.2,11.8285048824235,24.2312051101322,1.33242940035772,0.0217833827222185,4,9.4,29.9
4.23333333333333,11.8288508633523,24.2759750206405,1.35377389789963,0.021344497541915,4,9.27413194444444,29.9
4.26666666666667,11.8292038848948,24.3214492646431,1.37469235237574,0.0209184544761052,4,9.14652777777778,29.9
4.3,11.8295643171927,24.3676136613974,1.39518493519239,0.020492582816646,4,9.0171875,29.9
4.33333333333333,11.8299325188407,24.4144540133074,1.41525253581472,0.020067600622337,4,8.88611111111111,29.9
4.36666666666667,11.8303088135552,24.4619562230468,1.43490003302822,0.0196474972134963,4,8.75329861111111,29.9
4.4,11.8306934700024,24.51010640406,1.45413499365137,0.0192349606231546,4,8.61875,29.9
4.43333333333333,11.8310866861091,24.5588909539377,1.47296673518614,0.0188317415347699,4,8.48246527777778,29.9
4.46666666666667,11.8314885790333,24.6082966011325,1.49140565405781,0.0184389188716698,4,8.34444444444444,29.9
4.5,11.8318991814608,24.658310432594,1.50946274766378,0.018057093605969,4,8.2046875,29.9
4.53333333333333,11.8323184443283,24.7089199078555,1.52714927740538,0.0176865297415985,2,8.06319444444444,29.9
4.56666666666667,11.8327462455098,24.7601128636016,1.5444765339272,0.0173272565218228,2,7.91996527777778,29.9
4.6,11.8331824034958,24.8118775116444,1.5614556761863,0.0169791422590935,2,7.775,29.9
4.63333333333333,11.8336266947014,24.8642024324298,1.57809762364927,0.01664194746297,2,7.62829861111111,29.9
4.66666666666667,11.8340788726836,24.9170765503594,1.59441092174832,0.0163132980990519,2,7.47986111111111,29.9
4.7,11.8345386862077,24.9704888911581,1.61039280049564,0.0159818787473192,2,7.3296875,29.9
4.73333333333333,11.8350058960069,25.0244283471375,1.6260403989723,0.0156475984766664,2,7.17777777777778,29.9
4.76666666666667,11.8354802911661,25.0788837924685,1.64135525347875,0.0153148545064425,2,7.02413194444444,29.9
4.8,11.835961701861,25.1338442055757,1.65634191115478,0.0149866576760369,2,6.86875,29.9
4.83333333333333,11.836450007545,25.1892987518438,1.67100692857113,0.0146650174163423,2,6.71163194444444,29.9
4.86666666666667,11.8369451405002,25.245236837897,1.68535815064429,0.014351222073161,2,6.55277777777778,29.9
4.9,11.8374470850352,25.3016481454768,1.69940419478529,0.0140460441410015,2,6.3921875,29.9
4.93333333333333,11.8379558729265,25.3585226507826,1.71315408492338,0.0137498901380886,2,6.22986111111111,29.9
4.96666666666667,11.8384715794346,25.4158511209966,1.72667075045956,0.0135166655361809,2,6.06579861111111,29.9
5,11.8389943461445,25.4736295441875,1.74021038714415,0.0135396366845875,2,5.9,29.9
5.03333333333333,11.8395244151595,25.5318650258509,1.75417337129635,0.0139629841522095,2,5.9,29.9
5.06666666666667,11.8400621533432,25.5905799686407,1.76907987710261,0.0149065058062601,2,5.9,29.9
5.1,11.8406080830923,25.6498166550667,1.78560660204218,0.016526724939562,2,5.9,29.9
5.13333333333333,11.8411629232353,25.7096425688897,1.80459306818204,0.0189864661398633,4,5.9,29.9
5.16666666666667,11.8417276393985,25.770156227391,1.82705576482176,0.0224626966397203,4,5.9,29.9
5.2,11.8423034918134,25.8314918491051,1.85409412141441,0.0270383565926477,4,5.9,29.9
5.23333333333333,11.8428920475741,25.8938185814245,1.88666629747541,0.0325721760610032,4,5.9,29.9
5.26666666666667,11.8434951493403,25.9573335679396,1.92549271156648,0.038826414091067,4,5.9,29.9
5.3,11.8441148713986,26.0222533054281,1.97100442949825,0.045511717931767,4,5.9,29.9
5.33333333333333,11.8447534669742,26.088804149677,2.02337827177982,0.0523738422815778,4,5.9,29.9
5.36666666666667,11.845413328155,26.157215005842,2.08259333844028,0.0592150666604527,4,5.9,29.9
5.4,11.8460969458779,26.2277108070915,2.14843034073395,0.0658370022936734,4,5.9,29.9
5.43333333333333,11.8468068602267,26.3005057551796,2.22046292367902,0.0720325829450683,4,5.9,29.9
5.46666666666667,11.847545603189,26.3757967755917,2.29810179457252,0.0776388708935025,4,5.9,29.9
5.5,11.8483156569873,26.4537601095409,2.38070430284938,0.0826025082768647,4,5.9,29.9
5.53333333333333,11.8491194218177,26.5345501361606,2.46760541120895,0.086901108359565,4,5.9,29.9
5.56666666666667,11.8499591836852,26.6182990722413,2.55814474366462,0.0905393324556698,4,5.9,29.9
5.6,11.8508370626754,26.7051175093172,2.65168754077323,0.0935427971086069,4,5.9,29.9
5.63333333333333,11.8517549430073,26.7950955381307,2.74764142834109,0.0959538875678598,4,5.9,29.9
5.66666666666667,11.8527144635557,26.8883044791156,2.84547492689091,0.0978334985498206,4,5.9,29.9
5.7,11.8537170403729,26.9847990733009,2.94472473370755,0.0992498068166476,4,5.9,29.9
5.73333333333333,11.8547639016009,27.0846196775715,3.04498405358564,0.100259319878088,4,5.9,29.9
5.76666666666667,11.8558561170392,27.187793066579,3.1458416644795,0.100857610893859,4,5.9,29.9
5.8,11.8569946279457,27.294333104573,3.24694861273948,0.101106948259977,4,5.9,29.9
5.83333333333333,11.8581802921223,27.4042434229142,3.34803626471022,0.101087651970746,4,5.9,29.9
5.86666666666667,11.8594139220326,27.5175198094108,3.44890143666869,0.100865171958463,4,5.9,29.9
5.9,11.860696313949,27.6341521833779,3.54939244145382,0.100491004785135,4,5.9,29.9
5.93333333333333,11.8620282679813,27.7541261156571,3.64940037838389,0.100007936930071,4,5.9,29.9
5.96666666666667,11.8634106038998,27.8774243223855,3.74886435621506,0.0994639778311672,4,5.9,29.9
6,11.8648441733773,28.0040280674383,3.84774342997668,0.0988790737616156,4,5.9,29.9
6.03333333333333,11.8663298521106,28.1339166733136,3.94597182049388,0.0982283905172032,4,5.9,29.9
6.06666666666667,11.8678685394938,28.2670679819193,4.04352956971336,0.0975577492194786,4,5.9,29.9
6.1,11.8694611663649,28.4034597268421,4.14042539834848,0.0968958286351222,4,5.9,29.9
6.13333333333333,11.8711086938694,28.5430700346562,4.23666995699305,0.0962445586445684,4,5.9,29.9
6.16666666666667,11.8728121046965,28.6858771911565,4.33226132781985,0.0955913708268055,4,5.9,29.9
6.2,11.8745723912926,28.831859125874,4.42717777730615,0.0949164494862949,4,5.9,29.9
6.23333333333333,11.8763905405567,28.9809925467863,4.52136806679363,0.0941902894874822,4,5.9,29.9
6.26666666666667,11.8782675194019,29.1332521163406,4.61476349627939,0.0933954294857626,4,5.9,29.9
6.3,11.8802042663066,29.2886101066408,4.70729070856753,0.0925272122881386,4,5.9,29.9
6.33333333333333,11.8822016856415,29.4470361897428,4.79886068354397,0.0915699749764407,4,5.9,29.9
6.36666666666667,11.8842606220389,29.6084953236015,4.88925197797574,0.090391294431762,4,5.9,29.9
6.4,11.8863818187577,29.7729442372406,4.97828153860131,0.0890295606255762,4,5.9,29.9
6.43333333333333,11.8885659863105,29.9403377180816,5.06594610180829,0.0876645632069781,4,5.9,29.9
6.46666666666667,11.8908138034288,30.1106287392198,5.1521596925711,0.086213590762811,4,5.9,29.9
6.5,11.8931259155836,30.2837683373527,5.23689384532886,0.0847341527577576,4,5.9,29.9
6.53333333333333,11.8955029480494,30.4597067678397,5.32012706730262,0.0832332219737646,4,5.9,29.9
6.56666666666667,11.8979455248463,30.6383951124413,5.40196071952025,0.0818336522176235,4,5.9,29.9
6.6,11.9004543314831,30.8197904039384,5.4826167259941,0.0806560064738573,4,5.9,29.9
6.63333333333333,11.9030301216051,31.0038559463448,5.56223211916778,0.0796153931736736,4,5.9,29.9
