Time,x_ego,y_ego,velocity,acceleration,action,x_ped,y_ped
0,11.8,8.9,7,0,1,15.5,29.9
0.0333333333333333,11.8000041796125,9.13327037938785,6.99615578816176,-0.00384421183823669,1,15.5,29.9
0.0666666666666667,11.8000303314699,9.36640659855808,6.99196956641274,-0.00418622174902605,1,15.5,29.9
0.1,11.8000926098639,9.59940075300012,6.98769531271503,-0.00427425369770873,1,15.5,29.9
0.133333333333333,11.8001983545981,9.83225377515495,6.98349833673929,-0.00419697597573787,1,15.5,29.9
0.166666666666667,11.8003501253732,10.0649678497707,6.97935694703285,-0.00414138970643929,1,15.5,29.9
0.2,11.8005475247231,10.2975445470903,6.97525557468853,-0.00410137234432195,1,15.5,29.9
0.233333333333333,11.8007885944745,10.5299849978611,6.97118306873924,-0.00407250594928765,1,15.5,29.9
0.266666666666667,11.801070739625,10.7622900188979,6.96713145698599,-0.00405161175325475,1,15.5,29.9
0.3,11.8013912463857,10.9944602028902,6.96309504433922,-0.00403641264676224,1,15.5,29.9
0.333333333333333,11.8017475156913,11.2264959824836,6.95906976104049,-0.00402528329873153,1,15.5,29.9
0.366666666666667,11.8021371394093,11.4583976759489,6.9550526957372,-0.00401706530329626,1,15.5,29.9
0.4,11.8025579201775,11.6901655197135,6.95104176336867,-0.00401093236852201,1,15.5,29.9
0.433333333333333,11.8030078951068,11.921799691522,6.94703546967681,-0.00400629369186767,1,15.5,29.9
0.466666666666667,11.8034853836359,12.1533003269063,6.94303274401881,-0.00400272565800019,1,15.5,29.9
0.5,11.8039890506013,12.3846675308923,6.93903282009106,-0.0039999239277444,1,15.5,29.9
0.533333333333333,11.8045179612248,12.6159013863282,6.93503515024424,-0.00399766984681804,1,15.5,29.9
0.566666666666667,11.8050716043341,12.8470019598425,6.93103934353105,-0.00399580671319111,1,15.5,29.9
0.6,11.8056498695,13.0779693061539,6.92704512077658,-0.00399422275447581,1,15.5,29.9
0.633333333333333,11.8062529773089,13.308803471241,6.92305228207517,-0.0039928387014081,1,15.5,29.9
0.666666666666667,11.8068813745532,13.5395044947211,6.91906068346958,-0.00399159860558829,1,15.5,29.9
0.7,11.8075356141409,13.7700724116654,6.91507022042285,-0.00399046304672712,1,15.5,29.9
0.733333333333333,11.8082162415235,14.000507253993,6.91108081626878,-0.00398940415407001,1,15.5,29.9
0.766666666666667,11.8089237058809,14.2308090515282,6.9070924142552,-0.00398840201358386,1,15.5,29.9
0.8,11.8096583069933,14.4609778327761,6.90310497212931,-0.00398744212589452,1,15.5,29.9
0.833333333333333,11.8104201800806,14.6910136254557,6.89911845847121,-0.00398651365809588,1,15.5,29.9
0.866666666666667,11.8112093131625,14.9209164568305,6.89513285017505,-0.00398560829616379,1,15.5,29.9
0.9,11.8120255862864,15.1506863538828,6.8911481306315,-0.00398471954354207,1,15.5,29.9
0.933333333333333,11.8128688199699,15.3803233433779,6.88716428830364,-0.00398384232785975,1,15.5,29.9
0.966666666666667,11.8137388212368,15.6098274518672,6.88318131551579,-0.00398297278784998,1,15.5,29.9
1,11.8146354188273,15.8391987056685,6.87919920738296,-0.00398210813283661,1,15.5,29.9
1.03333333333333,11.8155584834096,16.0684371308543,6.87521796088064,-0.00398124650232035,1,15.5,29.9
1.06666666666667,11.8165079327474,16.2975427532613,6.87123757408598,-0.00398038679466151,1,15.5,29.9
1.1,11.8174837249407,16.5265155985263,6.86725804561714,-0.0039795284688342,1,15.5,29.9
1.13333333333333,11.8184858445799,16.7553556921403,6.86327937427471,-0.00397867134243057,1,15.5,29.9
1.16666666666667,11.819514286912,16.9840630595106,6.85930155886187,-0.0039778154128447,1,15.5,29.9
1.2,11.820569044197,17.2126377260167,6.85532459814065,-0.00397696072121523,1,15.5,29.9
1.23333333333333,11.8216500968229,17.4410797170523,6.85134849087295,-0.00397610726769759,1,15.5,29.9
1.26666666666667,11.8227574099769,17.6693890580468,6.84737323589698,-0.00397525497597062,1,15.5,29.9
1.3,11.8238909351687,17.8975657744676,6.84339883219986,-0.0039744036971241,1,15.5,29.9
1.33333333333333,11.8250506149481,18.1256098918077,6.83942527896115,-0.00397355323871285,1,15.5,29.9
1.36666666666667,11.8262363888253,18.3535214355649,6.83545257555747,-0.00397270340367939,1,15.5,29.9
1.4,11.8274481986216,18.5813004312215,6.83148072153152,-0.00397185402594946,1,15.5,29.9
1.43333333333333,11.8286859920553,18.808946904228,6.82750971653778,-0.00397100499373781,1,15.5,29.9
1.46666666666667,11.8299497240849,19.0364608799968,6.82353956028083,-0.00397015625695296,1,15.5,29.9
1.5,11.8312393561894,19.2638423839034,6.81957025246087,-0.0039693078199603,1,15.5,29.9
1.53333333333333,11.83255485422,19.4910914412962,6.81560179273651,-0.00396845972435678,1,15.5,29.9
1.56666666666667,11.8338961856547,19.7182080775087,6.81163418070864,-0.00396761202786511,1,15.5,29.9
1.6,11.8352633170417,19.9451923178723,6.80766741592371,-0.00396676478493063,1,15.5,29.9
1.63333333333333,11.8366562121946,20.1720441877267,6.80370149789069,-0.00396591803301938,1,15.5,29.9
1.66666666666667,11.8380748313997,20.3987637124246,6.79973642610434,-0.00396507178635463,1,15.5,29.9
1.7,11.8395191315996,20.6253509173322,6.79577220006759,-0.00396422603674473,1,15.5,29.9
1.73333333333333,11.8409890672982,20.851805827825,6.7918088193079,-0.00396338075969282,1,15.5,29.9
1.76666666666667,11.8424845918203,21.0781284692816,6.78784628338483,-0.0039625359230735,1,15.5,29.9
1.8,11.8440056585606,21.3043188670766,6.78388459188901,-0.00396169149582271,1,15.5,29.9
1.83333333333333,11.8455522219398,21.5303770465753,6.77992374443445,-0.00396084745455294,1,15.5,29.9
1.86666666666667,11.8471242379162,21.7563030331298,6.77596374064745,-0.0039600037870029,1,15.5,29.9
1.9,11.8487216640398,21.9820968520787,6.7720045801552,-0.00395916049224976,1,15.5,29.9
1.93333333333333,11.85034445914,22.2077585287482,6.76804626257691,-0.00395831757828979,1,15.5,29.9
1.96666666666667,11.8519925828032,22.433288088455,6.76408878751877,-0.00395747505814281,1,15.5,29.9
2,11.8536659948079,22.6586855565102,6.76013215457303,-0.00395663294573367,1,15.5,29.9
2.03333333333333,11.8553646546569,22.8839509582219,6.75617636332057,-0.00395579125245948,1,15.5,29.9
2.06666666666667,11.8570885212893,23.1090843188973,6.75222141333545,-0.00395494998512724,1,15.5,29.9
2.1,11.8588375529973,23.3340856638437,6.74826730419003,-0.00395410914541472,1,15.5,29.9
2.13333333333333,11.8606117075183,23.5589550183676,6.74431403545946,-0.00395326873057389,1,15.5,29.9
2.16666666666667,11.8624109422397,23.7836924077741,6.74036160672442,-0.00395242873504209,1,15.5,29.9
2.2,11.8642352144426,24.0082978573645,6.73641001757216,-0.00395158915225213,1,15.5,29.9
2.23333333333333,11.866084481519,24.2327713924354,6.73245926759583,-0.00395074997633316,1,15.5,29.9
2.26666666666667,11.8679587011183,24.4571130382772,6.72850935639264,-0.00394991120319599,1,15.5,29.9
2.3,11.8698578312053,24.6813228201737,6.72456028356162,-0.00394907283101542,1,15.5,29.9
2.33333333333333,11.871781830037,24.9054007634022,6.72061204870156,-0.00394823486006057,1,15.5,29.9
2.36666666666667,11.8737306560833,25.129346893234,6.71666465140947,-0.0039473972920927,1,15.5,29.9
2.4,11.8757042679215,25.3531612349352,6.7127180912799,-0.0039465601295694,1,15.5,29.9
2.43333333333333,11.8777026241368,25.5768438137674,6.70877236790503,-0.00394572337486299,1,15.5,29.9
2.46666666666667,11.8797256832498,25.8003946549885,6.70482748087535,-0.00394488702968676,1,15.5,29.9
2.5,11.8817734036819,26.0238137838527,6.70088342978055,-0.00394405109479656,1,15.5,29.9
2.53333333333333,11.8838457437577,26.2471012256107,6.69694021421056,-0.00394321556998722,1,15.5,29.9
2.56666666666667,11.8859426617363,26.4702570055096,6.69299783375625,-0.00394238045431194,1,15.5,29.9
2.6,11.8880641158557,26.693281148792,6.68905628800985,-0.00394154574640293,1,15.5,29.9
2.63333333333333,11.8902100643796,26.9161736806964,6.68511557656501,-0.00394071144483998,1,15.5,29.9
2.66666666666667,11.8923804656321,27.1389346264562,6.68117569901658,-0.00393987754843028,1,15.5,29.9
2.7,11.8945752780182,27.3615640113,6.67723665496021,-0.00393904405637091,1,15.5,29.9
2.73333333333333,11.8967944600257,27.584061860451,6.67329844399191,-0.00393821096830216,1,15.5,29.9
2.76666666666667,11.8990379702144,27.8064281991277,6.66936106570769,-0.00393737828421958,1,15.5,29.9
2.8,11.9013057672153,28.0286630545041,6.66542473477263,-0.00393633093505219,1,15.5,29.9
2.83333333333333,11.9035978098778,28.2507664733051,6.66149043590098,-0.00393429887165464,1,15.5,29.9
2.86666666666667,11.905914057495,28.4727385461973,6.65755978174895,-0.00393065415203164,1,15.5,29.9
2.9,11.9082544699691,28.6945794238738,6.65363469299707,-0.00392508875187492,1,15.5,29.9
2.93333333333333,11.9106190078786,28.9162893212673,6.64971706823759,-0.0039176247594801,1,15.5,29.9
2.96666666666667,11.9130076324938,29.1378685152893,6.64580874859138,-0.00390831964621619,1,15.5,29.9
3,11.915420305831,29.359317345871,6.64191169746064,-0.00389705113073724,1,15.5,29.9
3.03333333333333,11.9178569907379,29.5806362197231,6.63802790829216,-0.00388378916847643,1,15.5,29.9
3.06666666666667,11.9203176509021,29.8018256064784,6.63415912860996,-0.00386877968220034,1,15.5,29.9
3.1,11.9228022507836,30.022886027929,6.63030672888026,-0.00385239972970375,1,15.5,29.9
3.13333333333333,11.9253107555118,30.2438180447981,6.62647167544434,-0.00383505343591573,1,15.5,29.9
3.16666666666667,11.9278431307715,30.4646222436255,6.62265455797892,-0.00381711746541846,1,15.5,29.9
3.2,11.9303993426925,30.6852992250359,6.61885564113686,-0.00379891684206157,1,15.5,29.9
3.23333333333333,11.9329793577493,30.9058495938738,6.6150749228339,-0.00378071830296367,1,15.5,29.9
3.26666666666667,11.9355831426732,31.1262739512548,6.61131218979218,-0.00376273304171981,1,15.5,29.9
3.3,11.9382106643776,31.3465728883546,6.60756706589442,-0.0037451238977626,1,15.5,29.9
3.33333333333333,11.940861889896,31.5667469816661,6.60383905175112,-0.0037280141432916,1,15.5,29.9
3.36666666666667,11.9435367863294,31.7867967894105,6.60012755323796,-0.00371149851316144,1,15.5,29.9
3.4,11.9462353207992,32.0067228485599,6.59643188978924,-0.00369566344872752,1,15.5,29.9
3.43333333333333,11.9489574604024,32.2265256721389,6.59275130824456,-0.00368058154467299,1,15.5,29.9
3.46666666666667,11.9517031721715,32.4462057471382,6.58908500187562,-0.00366630636894794,1,15.5,29.9
3.5,11.95447242304,32.6657635329475,6.58543212234542,-0.00365287953019067,1,15.5,29.9
3.53333333333333,11.957265179811,32.8851994601271,6.58179179208552,-0.00364033025990373,1,15.5,29.9
3.56666666666667,11.960081409137,33.1045139301832,6.57816315125267,-0.0036286408328543,1,15.5,29.9
3.6,11.9629210787861,33.3237074205651,6.5745706107232,-0.00359254052946234,1,15.5,29.9
3.63333333333333,11.9657842245026,33.5427859313031,6.57137198498974,-0.00319862573346796,1,15.5,29.9
3.66666666666667,11.9686710777788,33.7617711557192,6.56907038690044,-0.00230159808930086,1,15.5,29.9
3.7,11.9715820681475,33.9807001224233,6.56807368934206,-0.000996697558375281,1,15.5,29.9
3.73333333333333,11.974517784368,34.1996214941674,6.56867469380845,0.000601004466387778,1,15.5,29.9
3.76666666666667,11.9774789351741,34.4185919268844,6.57106069121981,0.00238599741136269,1,15.5,29.9
3.8,11.9804663102084,34.6376725718961,6.57530007816767,0.00423938694785697,1,15.5,29.9
3.83333333333333,11.9834799041412,34.8569226992658,6.5812066262613,0.00590654809363667,1,15.5,29.9
3.86666666666667,11.9865170125085,35.0763937576452,6.58853612424257,0.00732949798126548,1,15.5,29.9
3.9,11.9895739468811,35.2961295611744,6.59707197817534,0.00853585393277001,1,15.5,29.9
3.93333333333333,11.9926423615709,35.5161671129248,6.60661770571328,0.00954572753793848,1,15.5,29.9
3.96666666666667,11.9957127536314,35.7365372003399,6.61699594521402,0.0103782395007412,1,15.5,29.9
4,11.9987766420336,35.9572650169082,6.62804955338974,0.0110536081757227,1,15.5,29.9
4.03333333333333,12.0018286128692,36.1783708253795,6.63964254282684,0.0115929894371014,1,15.5,29.9
4.06666666666667,12.0048641095132,36.3998706959139,6.65166006059874,0.0120175177718931,1,15.5,29.9
4.1,12.0078814440013,36.6217771673268,6.66400723151827,0.0123471709195346,1,15.5,29.9
4.13333333333333,12.0108814125322,36.8440998878575,6.67660718457801,0.0125999530597438,1,15.5,29.9
4.16666666666667,12.0138662270827,37.0668461920262,6.68939869110021,0.0127915065221913,1,15.5,29.9
4.2,12.0168387526069,37.2900216092024,6.70233646703391,0.0129377759337084,1,15.5,29.9
4.23333333333333,12.01980202074,37.5136306912466,6.71541076042251,0.0130742933885966,1,15.5,29.9
4.26666666666667,12.0227589522981,37.7376782518487,6.72864199970093,0.0132312392784195,1,15.5,29.9
4.3,12.0257122003763,37.9621698880472,6.74205322907957,0.0134112293786428,1,15.5,29.9
4.33333333333333,12.0286640568229,38.1871118252208,6.75565776097129,0.013604531891712,1,15.5,29.9
4.36666666666667,12.0316163929214,38.4125105313661,6.76945654354059,0.0137987825693049,1,15.5,29.9
4.4,12.0345706231751,38.6383723277322,6.78343994405844,0.0139834005178514,1,15.5,29.9
4.43333333333333,12.0375276933293,38.86470308948,6.79759103856549,0.014151094507044,1,15.5,29.9
4.46666666666667,12.0404880982327,39.0915080586766,6.81188892034017,0.0142978817746888,1,15.5,29.9
4.5,12.0434519328695,39.3187917577584,6.82631138640488,0.0144224660647083,1,15.5,29.9
