Time,x_ego,y_ego,velocity,acceleration,action,x_ped,y_ped
0,11.8,15.9,5,0,1,15.5,29.9
0.0333333333333333,11.8000012359285,16.0666076888414,4.99642261549726,-0.00357738450274336,1,15.4972222222222,29.9
0.0666666666666667,11.8000091647636,16.2330926530911,4.99264758115648,-0.00377503434077475,1,15.4888888888889,29.9
0.1,11.8000285015529,16.3994492967038,4.98873135070069,-0.00391623045579603,1,15.475,29.9
0.133333333333333,11.8000619628775,16.5656736234959,4.98471438031102,-0.00401697038966642,1,15.4555555555556,29.9
0.166666666666667,11.80011061235,16.7317627838498,4.98062565599594,-0.00408872431507667,1,15.4305555555556,29.9
0.2,11.8001742846702,16.8977147499385,4.97648594514145,-0.00413971085449116,1,15.4,29.9
0.233333333333333,11.8002519995685,17.0635280830554,4.97231012923249,-0.00417581590896265,1,15.3666666666667,29.9
0.266666666666667,11.8003423126467,17.2292017669036,4.96810887498688,-0.00420125424560513,1,15.3333333333333,29.9
0.3,11.8004435827361,17.3947350881023,4.96388983024898,-0.00421904473790402,1,15.3,29.9
0.333333333333333,11.8005541592868,17.560127550498,4.95965847954507,-0.0042313507039129,1,15.2666666666667,29.9
0.366666666666667,11.8006725063224,17.7253788136899,4.95541875644411,-0.00423972310095255,1,15.2333333333333,29.9
0.4,11.8007972825818,17.890488648913,4.95117348222252,-0.00424527422159304,1,15.2,29.9
0.433333333333333,11.8009273936059,18.0554569073749,4.94692468033479,-0.00424880188772825,1,15.1666666666667,29.9
0.466666666666667,11.8010620245175,18.2202834975333,4.94267380192691,-0.00425087840788407,1,15.1333333333333,29.9
0.5,11.8012006555401,18.3849683687973,4.9384218875442,-0.00425191438271266,1,15.1,29.9
0.533333333333333,11.8013430582358,18.5495114998433,4.93416968306233,-0.00425220448186714,1,15.0666666666667,29.9
0.566666666666667,11.8014892698651,18.7139128902514,4.92991772280411,-0.00425196025822139,1,15.0333333333333,29.9
0.6,11.801639545704,18.8781725545263,4.92566638916354,-0.00425133364056673,1,15,29.9
0.633333333333333,11.8017942932264,19.0422905178343,4.9214159554208,-0.00425043374273848,1,14.9666666666667,29.9
0.666666666666667,11.8019539960729,19.2062668129702,4.91716661652183,-0.00424933889896906,1,14.9333333333333,29.9
0.7,11.8021191382498,19.3701014782052,4.91291851122723,-0.00424810529459929,1,14.9,29.9
0.733333333333333,11.8022901392122,19.5337945557603,4.90867173806515,-0.00424677316208744,1,14.8666666666667,29.9
0.766666666666667,11.802467308321,19.6973460907222,4.90442636683593,-0.00424537122922075,1,14.8333333333333,29.9
0.8,11.8026508232451,19.8607561302668,4.90018244692107,-0.00424391991485251,1,14.8,29.9
0.833333333333333,11.8028407322454,20.0240247230954,4.8959400132838,-0.00424243363727239,1,14.7666666666667,29.9
0.866666666666667,11.8030369760407,20.1871519190191,4.89169909078075,-0.00424092250305375,1,14.7333333333333,29.9
0.9,11.8032394220401,20.350137768645,4.88745969721819,-0.00423939356255776,1,14.7,29.9
0.933333333333333,11.8034479026141,20.5129823231388,4.8832218454683,-0.00423785174988822,1,14.6666666666667,29.9
0.966666666666667,11.8036622497956,20.6756856340439,4.87898554489258,-0.00423630057571867,1,14.6333333333333,29.9
1,11.8038823209265,20.8382477531471,4.87475080227716,-0.00423474261542189,1,14.6,29.9
1.03333333333333,11.8041080126361,21.0006687323831,4.87051762244858,-0.00423317982857885,1,14.5666666666667,29.9
1.06666666666667,11.8043392634077,21.1629486237698,4.8662860086995,-0.00423161374908165,1,14.5333333333333,29.9
1.1,11.8045760472408,21.3250874793692,4.86205596311201,-0.00423004558749085,1,14.5,29.9
1.13333333333333,11.8048183621726,21.4870853512657,4.85782748682833,-0.00422847628368395,1,14.4666666666667,29.9
1.16666666666667,11.8050662175938,21.6489422915558,4.85360058028985,-0.00422690653847102,1,14.4333333333333,29.9
1.2,11.8053196235604,21.8106583523439,4.84937524344803,-0.00422533684182369,1,14.4,29.9
1.23333333333333,11.8055785840133,21.9722335857382,4.84515147594222,-0.00422376750581499,1,14.3666666666667,29.9
1.26666666666667,11.8058430943837,22.1336680438471,4.84092927723861,-0.00422219870360152,1,14.3333333333333,29.9
1.3,11.8061131428517,22.2949617787719,4.83670864672672,-0.0042206305118988,1,14.3,29.9
1.33333333333333,11.8063887137772,22.4561148425999,4.83248958377443,-0.00421906295228336,1,14.2666666666667,29.9
1.36666666666667,11.8066697916206,22.6171272873967,4.82827208774818,-0.00421749602625532,1,14.2333333333333,29.9
1.4,11.8069563639472,22.7779991652002,4.82405615800811,-0.00421592974006302,1,14.2,29.9
1.43333333333333,11.8072484226952,22.938730528018,4.81984179389066,-0.00421436411745013,1,14.1666666666667,29.9
1.46666666666667,11.8075459635695,23.099321427827,4.81562899468955,-0.00421279920110873,1,14.1333333333333,29.9
1.5,11.8078489840058,23.2597719165757,4.81141775964366,-0.00421123504589094,1,14.1,29.9
1.53333333333333,11.8081574804975,23.4200820461876,4.80720808793586,-0.00420967170780706,1,14.0666666666667,29.9
1.56666666666667,11.8084714461504,23.5802518685654,4.8029999787028,-0.00420810923305925,1,14.0333333333333,29.9
1.6,11.8087908691482,23.740281435593,4.79879343105262,-0.00420654765018114,1,14,29.9
1.63333333333333,11.8091157324772,23.9001707991367,4.79458844408557,-0.00420498696704197,1,13.9666666666667,29.9
1.66666666666667,11.8094460148775,24.0599200110437,4.7903850169127,-0.00420342717287614,1,13.9333333333333,29.9
1.7,11.8097816926721,24.2195291231391,4.7861831486685,-0.004201868244194,1,13.9,29.9
1.73333333333333,11.8101227419432,24.3789981872226,4.78198283851584,-0.00420031015266176,1,13.8666666666667,29.9
1.76666666666667,11.8104685775575,24.5383272560933,4.77778406846091,-0.00419877005492797,1,13.8333333333333,29.9
1.8,11.8108166848496,24.697516386192,4.7735868313918,-0.00419723706911324,1,13.8,29.9
1.83333333333333,11.8111648725024,24.8565656336368,4.76939114189729,-0.00419568949451143,1,13.7666666666667,29.9
1.86666666666667,11.8115118599791,25.0154750529982,4.76519701014971,-0.00419413174758176,1,13.7333333333333,29.9
1.9,11.8118571335283,25.1742446974077,4.76100444092001,-0.00419256922970135,1,13.7,29.9
1.93333333333333,11.812200759764,25.3328746188113,4.75681343479041,-0.00419100612959422,1,13.6666666666667,29.9
1.96666666666667,11.8125431976409,25.4913648682845,4.75262398999472,-0.0041894447956965,1,13.6333333333333,29.9
2,11.8128851345553,25.6497154963407,4.74843610392404,-0.00418788607067544,1,13.6,29.9
2.03333333333333,11.813227357877,25.8079265531917,4.74424977399397,-0.00418632993006884,1,13.5666666666667,29.9
2.06666666666667,11.8135706622067,25.9659980889444,4.74006499797233,-0.00418477602164558,1,13.5333333333333,29.9
2.1,11.8139157862412,26.1239301537387,4.73588177399377,-0.0041832239785613,1,13.5,29.9
2.13333333333333,11.8142633711399,26.2817227978428,4.73170010045164,-0.00418167354212784,1,13.4666666666667,29.9
2.16666666666667,11.8146139335208,26.4393760717168,4.72751997587608,-0.00418012457555772,1,13.4333333333333,29.9
2.2,11.8149678490454,26.5968900260575,4.7233413988441,-0.00417857703198443,1,13.4,29.9
2.23333333333333,11.8153253454089,26.7542647118242,4.71916436793491,-0.0041770309091822,1,13.3666666666667,29.9
2.26666666666667,11.8156865053487,26.9115001802446,4.714988881731,-0.00417548620391628,1,13.3333333333333,29.9
2.3,11.8160512805517,27.0685964827974,4.71081493885766,-0.00417394287333739,1,13.3,29.9
2.33333333333333,11.8164195162565,27.2255536711702,4.70664253804595,-0.004172400811707,1,13.2666666666667,29.9
2.36666666666667,11.8167909844917,27.3823717971951,4.70247167819608,-0.00417085984987065,1,13.2333333333333,29.9
2.4,11.8171654220428,27.5390509127706,4.69830235841718,-0.00416931977890478,1,13.2,29.9
2.43333333333333,11.8175425680665,27.6955910697796,4.69413457802679,-0.00416778039039034,1,13.1666666666667,29.9
2.46666666666667,11.8179221961805,27.8519923200165,4.68996833650807,-0.00416624151871847,1,13.1333333333333,29.9
2.5,11.8183041368939,28.0082547151334,4.68580363343745,-0.00416470307062067,1,13.1,29.9
2.53333333333333,11.8186882881322,28.1643783066113,4.68164046840404,-0.00416316503341196,1,13.0666666666667,29.9
2.56666666666667,11.8190746138695,28.3203631457582,4.67747884094116,-0.00416162746287441,1,13.0333333333333,29.9
2.6,11.819463132966,28.4762092837298,4.67331875048245,-0.00416009045870869,1,13,29.9
2.63333333333333,11.8198539017685,28.6319167715658,4.66916019634509,-0.00415855413735944,1,12.9666666666667,29.9
2.66666666666667,11.8202469946151,28.787485660233,4.66500317773586,-0.00415701860923612,1,12.9333333333333,29.9
2.7,11.8206424860666,28.9429160006658,4.66084769377271,-0.00415548396314325,1,12.9,29.9
2.73333333333333,11.8210404376552,29.0982078437972,4.65669374351506,-0.0041539502576553,1,12.8666666666667,29.9
2.76666666666667,11.8214408905223,29.2533612405777,4.65254132599664,-0.00415241751841755,1,12.8333333333333,29.9
2.8,11.8218438638739,29.4083762419802,4.64839044025605,-0.00415088574059475,1,12.8,29.9
2.83333333333333,11.8222493580357,29.5632528989941,4.64424108536023,-0.00414935489581936,1,12.7666666666667,29.9
2.86666666666667,11.8226573602273,29.7179912626127,4.64009326041784,-0.00414782494238874,1,12.7333333333333,29.9
2.9,11.82306785106,29.8725913838187,4.63594696458138,-0.00414629583645532,1,12.7,29.9
2.93333333333333,11.823480810113,30.0270533135705,4.63180219703977,-0.00414476754161619,1,12.6666666666667,29.9
2.96666666666667,11.8238962195782,30.1813771027943,4.627658957005,-0.00414324003476363,1,12.6333333333333,29.9
3,11.8243140656949,30.3355628023797,4.62351724369749,-0.00414171330751412,1,12.6,29.9
3.03333333333333,11.8247343383124,30.4896104631813,4.61937705633382,-0.00414018736367083,1,12.5666666666667,29.9
3.06666666666667,11.8251570293149,30.6435201360221,4.61523839411943,-0.00413866221439108,1,12.5333333333333,29.9
3.1,11.8255821307564,30.7972918716983,4.61110125624669,-0.00413713787273462,1,12.5,29.9
3.13333333333333,11.826009633423,30.9509257209829,4.60696564189754,-0.00413561434915088,1,12.4666666666667,29.9
3.16666666666667,11.8264395262446,31.1044217346269,4.60283155024872,-0.00413409164881973,1,12.4333333333333,29.9
3.2,11.8268717966316,31.2577799633589,4.59869898047766,-0.00413256977106524,1,12.4,29.9
3.23333333333333,11.8273064315135,31.4110004578818,4.59456793176701,-0.0041310487106454,1,12.3666666666667,29.9
3.26666666666667,11.8277434186715,31.5640832688697,4.59043840330692,-0.00412952846008974,1,12.3333333333333,29.9
3.3,11.8281827479283,31.7170284469644,4.58631039429459,-0.00412800901232746,1,12.3,29.9
3.33333333333333,11.8286244118442,31.8698360427735,4.58218390393182,-0.00412649036277468,1,12.2666666666667,29.9
3.36666666666667,11.8290684057505,32.0225061068705,4.57805893142143,-0.00412497251038424,1,12.2333333333333,29.9
3.4,11.829514727149,32.1750386897956,4.57393547596388,-0.00412345545755954,1,12.2,29.9
3.43333333333333,11.8299633746698,32.3274338420594,4.56981353675478,-0.00412193920909854,1,12.1666666666667,29.9
3.46666666666667,11.8304143468757,32.4796916141456,4.56569311298414,-0.00412042377064026,1,12.1333333333333,29.9
3.5,11.830867641208,32.6318120565139,4.56157420383711,-0.00411890914702795,1,12.1,29.9
3.53333333333333,11.8313226865054,32.7837952211971,4.55745679940471,-0.00411740443239861,1,12.0666666666667,29.9
3.56666666666667,11.8317763588058,32.9356411674612,4.55334088886939,-0.00411591053532057,1,12.0333333333333,29.9
3.6,11.8322226795347,33.0873499628243,4.5492264793738,-0.00411440949558983,1,12,29.9
3.63333333333333,11.8326519857399,33.2389216853713,4.54511362901354,-0.00411285036025433,1,11.9666666666667,29.9
3.66666666666667,11.8330525965906,33.3903564184237,4.54100245721574,-0.00411117179780174,1,11.9333333333333,29.9
3.7,11.8334136616155,33.5416542411224,4.53689310388075,-0.00410935333499296,1,11.9,29.9
3.73333333333333,11.8337251611863,33.6928152267762,4.53278565328367,-0.00410745059708173,1,11.8666666666667,29.9
3.76666666666667,11.8339819113817,33.8438394307247,4.52868001727321,-0.00410563601046032,1,11.8333333333333,29.9
3.8,11.8341836086833,33.994726891222,4.524576000221,-0.00410401705220487,1,11.8,29.9
3.83333333333333,11.8343334844985,34.1454776355441,4.52047338768272,-0.0041026125382837,1,11.7666666666667,29.9
3.86666666666667,11.8344370184755,34.2960916862169,4.51637201589917,-0.00410137178355274,1,11.7333333333333,29.9
3.9,11.8345008337152,34.4465690661154,4.5122718021792,-0.00410021371996283,1,11.7,29.9
3.93333333333333,11.8345318214741,34.5969098018228,4.50817274135599,-0.00409906082321854,1,11.6666666666667,29.9
3.96666666666667,11.8345364915262,34.7471139252393,4.50407488364957,-0.00409785770641324,1,11.6333333333333,29.9
4,11.8345205185725,34.8971814738131,4.4999783082322,-0.00409657541737651,1,11.6,29.9
4.03333333333333,11.8344884499948,35.0471124992022,4.49588413202312,-0.00409417620907959,1,11.5666666666667,29.9
4.06666666666667,11.8344435473909,35.1969071529018,4.4917973182085,-0.00408681381461395,1,11.5333333333333,29.9
4.1,11.8343877445267,35.3465658058517,4.48772581562074,-0.00407150258776401,1,11.5,29.9
4.13333333333333,11.8343211532404,35.4960891290414,4.48367961136404,-0.00404620425669844,1,11.4666666666667,29.9
4.16666666666667,11.8342408521884,35.6454781515952,4.4796701857921,-0.00400942557194384,1,11.4333333333333,29.9
4.2,11.8341428199011,35.7947342993912,4.4757098178983,-0.00396036789379917,1,11.4,29.9
4.23333333333333,11.8340215332378,35.9438593986266,4.47181008018314,-0.00389973771515884,1,11.3666666666667,29.9
4.26666666666667,11.8338722695029,36.092855626411,4.46798037563242,-0.00382970455072051,1,11.3333333333333,29.9
4.3,11.8336918080534,36.2417254116678,4.46422602966502,-0.00375434596739677,1,11.3,29.9
4.33333333333333,11.8334783810573,36.3904712719104,4.4605471430158,-0.00367888664921967,1,11.2666666666667,29.9
4.36666666666667,11.8332315138607,36.5390988594825,4.45745563373488,-0.00309150928091828,1,11.2333333333333,29.9
4.4,11.8329517848624,36.687700608239,4.4601758563893,0.00272022265441674,1,11.2,29.9
4.43333333333333,11.8326404799963,36.8365579549801,4.4731073059189,0.0129314495296002,1,11.1666666666667,29.9
4.46666666666667,11.8322992020568,36.9860273505706,4.49681367223949,0.0237063663205888,4,11.1333333333333,29.9
4.5,11.8319295373634,37.1364543275621,4.53038063990628,0.0335669676667898,4,11.1,29.9
4.53333333333333,11.8315327812943,37.2881477414076,4.57258427603173,0.0422036361254561,4,11.0666666666667,29.9
4.56666666666667,11.8311097340511,37.4413734316558,4.62210293674766,0.0495186607159237,4,11.0333333333333,29.9
4.6,11.8306600035395,37.5963537943477,4.67766482033288,0.0555618835852192,4,11,29.9
4.63333333333333,11.830180550754,37.7532704620146,4.73810268684748,0.0604378665146017,4,10.9666666666667,29.9
4.66666666666667,11.8296680183449,37.9122682477968,4.80237261940027,0.0642699325527945,4,10.9333333333333,29.9
4.7,11.8291194610606,38.0734586821077,4.8695171975052,0.0671445781049282,4,10.9,29.9
4.73333333333333,11.8285323654395,38.2369230854304,4.93869007994759,0.0691728824423903,4,10.8666666666667,29.9
4.76666666666667,11.8279046280199,38.402716892674,5.00918122942624,0.0704911494786504,4,10.8333333333333,29.9
4.8,11.8272345142768,38.5708736844879,5.08039171232128,0.0712104828950419,4,10.8,29.9
4.83333333333333,11.8265206071939,38.7414098651876,5.1519047528655,0.0715130405442155,4,10.7666666666667,29.9
4.86666666666667,11.8257617445008,38.914331613933,5.22351182867056,0.0716070758050646,4,10.7333333333333,29.9
4.9,11.8249569529876,39.0896398024948,5.29507672131253,0.0715648926419608,4,10.7,29.9
4.93333333333333,11.8241053874079,39.2673305415894,5.36645577034604,0.0713790490335189,4,10.6666666666667,29.9
4.96666666666667,11.8232062658192,39.4473959683844,5.43755257554901,0.0710968052029699,4,10.6333333333333,29.9
