Time,x_ego,y_ego,velocity,acceleration,action,x_ped,y_ped
0,11.8,15.9,7,0,1,15.5,29.9
0.0333333333333333,11.8000008865857,16.133270379394,6.99615577991841,-0.0038442200815938,1,15.5,29.9
0.0666666666666667,11.8000064339571,16.3664065987999,6.99196947538242,-0.00418630453598645,1,15.5,29.9
0.1,11.8000196445433,16.5994007551766,6.98769500183712,-0.00427447354529598,1,15.5,29.9
0.133333333333333,11.8000420752732,16.8322537848284,6.983497685232,-0.0041973166051239,1,15.5,29.9
0.166666666666667,11.8000742691125,17.0649678788595,6.97935590372366,-0.00414178150833511,1,15.5,29.9
0.2,11.8001161417479,17.2975446154427,6.97525416149575,-0.00410174222791504,1,15.5,29.9
0.233333333333333,11.800167277807,17.5299851335513,6.97118135398893,-0.00407280750682126,1,15.5,29.9
0.266666666666667,11.8002271268323,17.762290257465,6.96712952401992,-0.00405182996900777,1,15.5,29.9
0.3,11.8002951131701,17.9944605859838,6.96309296986959,-0.00403655415032667,1,15.5,29.9
0.333333333333333,11.8003706855026,18.2264965563484,6.95906760593838,-0.00402536393121,1,15.5,29.9
0.366666666666667,11.800453333014,18.4583984900337,6.95505050461505,-0.00401710132333033,1,15.5,29.9
0.4,11.8005425895977,18.6901666255576,6.95103956806592,-0.0040109365491352,1,15.5,29.9
0.433333333333333,11.8006380388846,18.9218011419842,6.94703329309286,-0.0040062749730545,1,15.5,29.9
0.466666666666667,11.8007393243935,19.1533021757616,6.94303060262843,-0.00400269046443746,1,15.5,29.9
0.5,11.8008461629098,19.3846698327831,6.93903072494392,-0.0039998776845076,1,15.5,29.9
0.533333333333333,11.8009583561492,19.6159041970285,6.9350331070394,-0.00399761790452224,1,15.5,29.9
0.566666666666667,11.8010757956833,19.8470053367551,6.93103735254493,-0.00399575449446488,1,15.5,29.9
0.6,11.801197621352,20.0779733092538,6.92704316624591,-0.00399418629901849,1,15.5,29.9
0.633333333333333,11.8013202717339,20.3088081649038,6.92305034320612,-0.00399282303979209,1,15.5,29.9
0.666666666666667,11.8014408181659,20.5395099483098,6.91905874922643,-0.0039915939796904,1,15.5,29.9
0.7,11.8015577549443,20.7700786994489,6.91506828501356,-0.0039904642128743,1,15.5,29.9
0.733333333333333,11.8016706054706,21.0005144548484,6.91107887527688,-0.00398940973668083,1,15.5,29.9
0.766666666666667,11.801779520263,21.2308172485398,6.90709046352474,-0.00398841175213871,1,15.5,29.9
0.8,11.8018849673727,21.4609871128005,6.9031030083734,-0.00398745515134191,1,15.5,29.9
0.833333333333333,11.801987528246,21.691024078705,6.89911648019794,-0.00398652817545919,1,15.5,29.9
0.866666666666667,11.8020877859692,21.9209281765111,6.89513085808458,-0.00398562211335296,1,15.5,29.9
0.9,11.802186279358,22.1506994359192,6.89114612730503,-0.00398473077955153,1,15.5,29.9
0.933333333333333,11.8022834938644,22.3803378862421,6.88716227741119,-0.00398384989384137,1,15.5,29.9
0.966666666666667,11.8023798654474,22.6098435565187,6.88317930089036,-0.00398297652082924,1,15.5,29.9
1,11.8024757824872,22.8392164755924,6.8791971922493,-0.00398210864106474,1,15.5,29.9
1.03333333333333,11.8025715800723,23.0684566721706,6.87521594739805,-0.0039812448512464,1,15.5,29.9
1.06666666666667,11.8026675281148,23.2975641748692,6.8712355632351,-0.00398038416295066,1,15.5,29.9
1.1,11.8027638186219,23.5265390122473,6.86725603736603,-0.00397952586906847,1,15.5,29.9
1.13333333333333,11.8028597283866,23.7553812131857,6.86327736849599,-0.00397866887004117,1,15.5,29.9
1.16666666666667,11.8029517395846,23.9840908076975,6.85929955756436,-0.00397781093163108,1,15.5,29.9
1.2,11.8030369709872,24.2126678254334,6.85532260570373,-0.00397695186063096,1,15.5,29.9
1.23333333333333,11.8031138430582,24.4411122953572,6.85134651148396,-0.00397609421976686,1,15.5,29.9
1.26666666666667,11.8031817093254,24.6694242459007,6.84737127153947,-0.00397523994449145,1,15.5,29.9
1.3,11.8032405228673,24.8976037051449,6.84339688235861,-0.00397438918086301,1,15.5,29.9
1.33333333333333,11.8032905782084,25.1256507009861,6.83942334143769,-0.00397354092091984,1,15.5,29.9
1.36666666666667,11.803332337074,25.3535652612587,6.83545064749845,-0.00397269393923594,1,15.5,29.9
1.4,11.803366325605,25.5813474138088,6.83147880014727,-0.00397184735117673,1,15.5,29.9
1.43333333333333,11.8033930810081,25.8089971865284,6.82750779941318,-0.00397100073409629,1,15.5,29.9
1.46666666666667,11.8034131251414,26.0365146073636,6.82353764541009,-0.0039701540030892,1,15.5,29.9
1.5,11.8034269478996,26.2638997043108,6.81956833817905,-0.00396930723103939,1,15.5,29.9
1.53333333333333,11.8034349909708,26.4911525054082,6.81559987766415,-0.00396846051489863,1,15.5,29.9
1.56666666666667,11.8034376297315,26.7182730387253,6.8116322637505,-0.00396761391365175,1,15.5,29.9
1.6,11.8034351559447,26.9452613323541,6.80766549630746,-0.00396676744304258,1,15.5,29.9
1.63333333333333,11.8034277658853,27.1721174143992,6.80369957520788,-0.00396592109957528,1,15.5,29.9
1.66666666666667,11.8034155578927,27.3988413133524,6.7997345562491,-0.00396501895878121,1,15.5,29.9
1.7,11.8033985410672,27.6254330738888,6.79577173481566,-0.00396282143343818,1,15.5,29.9
1.73333333333333,11.8033766540127,27.8518928265439,6.79181489030067,-0.00395684451499001,1,15.5,29.9
1.76666666666667,11.8033497901756,28.0782208527015,6.78786904071835,-0.00394584958232524,1,15.5,29.9
1.8,11.8033178250644,28.3044176039736,6.78393924347133,-0.00392979724701359,1,15.5,29.9
1.83333333333333,11.8032806406562,28.5304836914307,6.78002991721649,-0.00390932625484197,1,15.5,29.9
1.86666666666667,11.803238143389,28.756419857044,6.77614446409395,-0.00388545312253985,1,15.5,29.9
1.9,11.8031902738821,28.9822269379329,6.77228519622072,-0.0038592678732261,1,15.5,29.9
1.93333333333333,11.8031370084096,29.2079058312872,6.76845342894235,-0.00383176727837409,1,15.5,29.9
1.96666666666667,11.8030783537145,29.433457463741,6.7646496422749,-0.0038037866674463,1,15.5,29.9
2,11.8030143376988,29.658882766425,6.76087365300263,-0.00377598927227663,1,15.5,29.9
2.03333333333333,11.8029449987739,29.8841826552731,6.75712474912139,-0.00374890388123905,1,15.5,29.9
2.06666666666667,11.8028703762763,30.1093580150762,6.75340179309081,-0.0037229560305807,1,15.5,29.9
2.1,11.8027905035656,30.334409687152,6.74970332888088,-0.00369846420992292,1,15.5,29.9
2.13333333333333,11.8027054044735,30.559338459781,6.74602569978293,-0.00367762909795033,1,15.5,29.9
2.16666666666667,11.8026150921849,30.7841479872986,6.74269097232176,-0.00333472746117458,1,15.5,29.9
2.2,11.8025195647281,31.0088684969215,6.74091833205821,-0.00177264026354695,1,15.5,29.9
2.23333333333333,11.8024188009196,31.2335746883814,6.74199356885174,0.00107523679353072,1,15.5,29.9
2.26666666666667,11.8023127644102,31.4583702389544,6.74626127044259,0.00426770159084366,1,15.5,29.9
2.3,11.8022014126546,31.6833582463596,6.75347516418438,0.0072138937417936,1,15.5,29.9
2.33333333333333,11.802084701568,31.9086293903038,6.76316830873831,0.00969314455392922,1,15.5,29.9
2.36666666666667,11.8019625874182,32.1342584546303,6.7748777732909,0.0117094645525908,1,15.5,29.9
2.4,11.8018350266718,32.3603056806037,6.78819492288688,0.0133171495959807,1,15.5,29.9
2.43333333333333,11.8017019753571,32.5868186586217,6.80276977650733,0.0145748536204504,1,15.5,29.9
2.46666666666667,11.8015633884122,32.8138343025623,6.81831143825527,0.0155416617479425,1,15.5,29.9
2.5,11.8014192193109,33.0413807698425,6.83458455275617,0.0162731145008932,1,15.5,29.9
2.53333333333333,11.8012694201176,33.2694792143077,6.85140307353387,0.0168185207777034,1,15.5,29.9
2.56666666666667,11.8011139419585,33.4981453073333,6.8686228113981,0.0172197378642274,1,15.5,29.9
2.6,11.8009527357762,33.7273905064149,6.88613388793905,0.0175110765409467,1,15.5,29.9
2.63333333333333,11.8007857531686,33.9572230807154,6.90385378440479,0.0177198964657448,1,15.5,29.9
2.66666666666667,11.8006129471145,34.1876489198182,6.92172132032173,0.0178675359169373,1,15.5,29.9
2.7,11.8004342724431,34.4186721587833,6.93969165640463,0.017970336082902,1,15.5,29.9
2.73333333333333,11.8002496859821,34.6502956531978,6.95773227647881,0.0180406200741858,4,15.5,29.9
2.76666666666667,11.8000591463995,34.8825213350933,6.97581983422882,0.0180875577500066,4,15.5,29.9
2.8,11.7998626138194,35.1153504762966,6.99393772632202,0.018117892093195,4,15.5,29.9
2.83333333333333,11.7996600493208,35.3487838811187,7.0120742545055,0.0181365281834855,4,15.5,29.9
2.86666666666667,11.7994514144339,35.5828220258971,7.03022125292123,0.0181469984157232,4,15.5,29.9
2.9,11.7992366707231,35.8174651590785,7.04837307542194,0.0181518225007125,4,15.5,29.9
2.93333333333333,11.7990157795093,36.0527133723314,7.06652585680085,0.0181527813789089,4,15.5,29.9
2.96666666666667,11.7987887017426,36.2885666506129,7.08467697942106,0.0181511226202131,4,15.5,29.9
3,11.7985553980055,36.5250249070905,7.10282469186771,0.0181477124466465,4,15.5,29.9
3.03333333333333,11.7983158286152,36.7620879927059,7.1209655831435,0.018140891275789,4,15.5,29.9
3.06666666666667,11.79806995407,36.9997553530314,7.13907405679283,0.0181084736493373,4,15.5,29.9
3.1,11.7978177361973,37.2380249381659,7.15708643014473,0.0180123733519002,4,15.5,29.9
3.13333333333333,11.7975591392823,37.4768922235975,7.17492403704504,0.0178376069003079,1,15.5,29.9
3.16666666666667,11.7972941303838,37.7163501728604,7.19251301068848,0.0175889736434396,1,15.5,29.9
3.2,11.7970226797229,37.9563891145786,7.20977364814261,0.0172606374541262,1,15.5,29.9
3.23333333333333,11.7967447602955,38.1969973914191,7.22667195934056,0.0168983111979522,1,15.5,29.9
3.26666666666667,11.7964603464552,38.4381629567736,7.24321477643039,0.0165428170898361,1,15.5,29.9
3.3,11.7961694129217,38.6798743975838,7.25943079926425,0.0162160228338593,1,15.5,29.9
3.33333333333333,11.7958719342111,38.9221214460395,7.27535839123968,0.0159275919754283,1,15.5,29.9
3.36666666666667,11.7955678843493,39.1648951646511,7.29103824027935,0.0156798490396692,1,15.5,29.9
3.4,11.7952572367366,39.4081879612967,7.30650990034543,0.0154716600660807,1,15.5,29.9
