Time,x_ego,y_ego,velocity,acceleration,action,x_ped,y_ped
0,11.8,8.9,7,0,1,15.5,29.9
0.0333333333333333,11.8000016887344,9.13327037939326,6.99615578093914,-0.00384421906085919,1,15.5,29.9
0.0666666666666667,11.8000130990848,9.36640659876374,6.99196949168822,-0.00418628925092168,1,15.5,29.9
0.1,11.8000460309795,9.59940075471036,6.98769510845979,-0.0042743832284291,1,15.5,29.9
0.133333333333333,11.8001185460375,9.83225378160226,6.98349810278673,-0.00419700567305892,1,15.5,29.9
0.166666666666667,11.8002510758913,10.0649678641186,6.97935707800602,-0.00414102478070788,1,15.5,29.9
0.2,11.800465304923,10.2975445648134,6.97525672395871,-0.00410035404731701,1,15.5,29.9
0.233333333333333,11.8007766102408,10.5299849945044,6.97118583091201,-0.00407089304669306,1,15.5,29.9
0.266666666666667,11.8011906056664,10.7622899387294,6.96713602097348,-0.00404980993853776,1,15.5,29.9
0.3,11.8017030352053,10.9944599552963,6.96310108142456,-0.00403493954891054,1,15.5,29.9
0.333333333333333,11.8023039401288,11.2264954473609,6.95907671988403,-0.0040243615405382,1,15.5,29.9
0.366666666666667,11.8029836684346,11.4583967116643,6.95506010096195,-0.00401661892207628,1,15.5,29.9
0.4,11.8037343166036,11.6901639706433,6.95104928637975,-0.0040108145821991,1,15.5,29.9
0.433333333333333,11.8045496145383,11.9217973940655,6.94704292071006,-0.00400636566969492,1,15.5,29.9
0.466666666666667,11.8054245996651,12.1532971136417,6.94304003115437,-0.00400288955568229,1,15.5,29.9
0.5,11.8063553077451,12.3846632330917,6.93903990638066,-0.0040001247737127,1,15.5,29.9
0.533333333333333,11.8073385866948,12.6158958351222,6.93504202321972,-0.0039978831609373,1,15.5,29.9
0.566666666666667,11.8083712039879,12.8469949887165,6.93104588940018,-0.00399613381954556,1,15.5,29.9
0.6,11.8094471809278,13.0779607619804,6.92705110194742,-0.00399478745275506,1,15.5,29.9
0.633333333333333,11.810558639518,13.3087932254516,6.92305744565092,-0.00399365629650195,1,15.5,29.9
0.666666666666667,11.811697011617,13.5394924518896,6.9190648384854,-0.00399260716552163,1,15.5,29.9
0.7,11.8128531177709,13.770058517917,6.91507318895107,-0.00399164953432951,1,15.5,29.9
0.733333333333333,11.8140155734581,14.000491511344,6.91108252566217,-0.00399066328890374,1,15.5,29.9
0.766666666666667,11.8151752266284,14.230791513951,6.9070930249112,-0.00398950075096582,1,15.5,29.9
0.8,11.8163282726853,14.4609585854186,6.90310476776748,-0.00398825714372286,1,15.5,29.9
0.833333333333333,11.8174749505769,14.6909927653449,6.89911770897019,-0.00398705879729011,1,15.5,29.9
0.866666666666667,11.8186177008088,14.9208940800042,6.8951317609254,-0.00398594804479124,1,15.5,29.9
0.9,11.8197598641032,15.1506625483775,6.89114684119753,-0.00398491972786186,1,15.5,29.9
0.933333333333333,11.8209048985558,15.3802981864389,6.88716288838024,-0.00398395281729602,1,15.5,29.9
0.966666666666667,11.8220560015449,15.6098010096111,6.8831798614694,-0.00398302691084051,1,15.5,29.9
1,11.8232159898539,15.8391710338544,6.87919773436676,-0.00398212710263479,1,15.5,29.9
1.03333333333333,11.824387303524,16.0684082760059,6.87521649077303,-0.00398124359373764,1,15.5,29.9
1.06666666666667,11.8255720372159,16.2975127538735,6.8712361205767,-0.00398037019632724,1,15.5,29.9
1.1,11.826771949153,16.5264844863735,6.86725661737655,-0.00397950320015195,1,15.5,29.9
1.13333333333333,11.8279884380006,16.7553234937938,6.86327797671678,-0.0039786406597635,1,15.5,29.9
1.16666666666667,11.8292225042055,16.9840297981227,6.85930019487245,-0.00397778184433495,1,15.5,29.9
1.2,11.830474722281,17.2126034233215,6.85532326816663,-0.00397692670582028,1,15.5,29.9
1.23333333333333,11.8317452468579,17.4410443954191,6.85134719280116,-0.00397607536547273,1,15.5,29.9
1.26666666666667,11.8330338633612,17.669352742362,6.84737196510641,-0.00397522769474712,1,15.5,29.9
1.3,11.8343400798461,17.8975284936204,6.84339758202409,-0.00397438308231468,1,15.5,29.9
1.33333333333333,11.8356632448193,18.1255716796195,6.83942404158316,-0.00397354044093134,1,15.5,29.9
1.36666666666667,11.8370026697263,18.3534823311059,6.83545134315541,-0.00397269842775572,1,15.5,29.9
1.4,11.8383577349826,18.5812604785668,6.83147948738439,-0.00397185577101133,1,15.5,29.9
1.43333333333333,11.8397279638434,18.8089061517982,6.82750847582072,-0.00397101156367796,1,15.5,29.9
1.46666666666667,11.8411130568062,19.0364193796742,6.82353831040065,-0.00397016542006412,1,15.5,29.9
1.5,11.8425128880685,19.2638001901236,6.81956899293419,-0.00396931746646079,1,15.5,29.9
1.53333333333333,11.8439274726513,19.4910486102756,6.81560052472759,-0.00396846820660279,1,15.5,29.9
1.56666666666667,11.8453569168305,19.7181646667133,6.81163290639399,-0.00396761833360237,1,15.5,29.9
1.6,11.8468013651494,19.945148385762,6.80766613784236,-0.00396676855163136,1,15.5,29.9
1.63333333333333,11.8482609550332,20.1719997937481,6.80370021839906,-0.00396591944329572,1,15.5,29.9
1.66666666666667,11.8497357859603,20.3987189171853,6.79973514700568,-0.00396507139338453,1,15.5,29.9
1.7,11.8512259055237,20.6253057828667,6.79577092243988,-0.00396422456579337,1,15.5,29.9
1.73333333333333,11.8527313106634,20.8517604178697,6.79180754351487,-0.00396337892501197,1,15.5,29.9
1.76666666666667,11.8542519596057,21.0780828494931,6.78784500922454,-0.003962534290328,1,15.5,29.9
1.8,11.855787788921,21.3042731051602,6.78388331881696,-0.00396169040758565,1,15.5,29.9
1.83333333333333,11.857338730463,21.530331212317,6.77992247179599,-0.00396084702097088,1,15.5,29.9
1.86666666666667,11.858904724361,21.7562571983513,6.77596246786693,-0.00396000392905993,1,15.5,29.9
1.9,11.8604857261413,21.9820510905464,6.77200330685151,-0.00395916101541705,1,15.5,29.9
1.93333333333333,11.8620817079027,22.2077129160702,6.76804498859926,-0.0039583182522458,1,15.5,29.9
1.96666666666667,11.8636926548717,22.4332427019955,6.76408751291655,-0.00395747568271432,1,15.5,29.9
2,11.8653185594045,22.6586404753369,6.76013087952498,-0.00395663339156904,1,15.5,29.9
2.03333333333333,11.866959414581,22.8839062630929,6.75617508805114,-0.00395579147383618,1,15.5,29.9
2.06666666666667,11.8686152090907,23.1090400922801,6.75222013804182,-0.00395495000932033,1,15.5,29.9
2.1,11.8702859243805,23.3340419899534,6.74826602899467,-0.00395410904714932,1,15.5,29.9
2.13333333333333,11.8719715342478,23.55891198321,6.7443127603933,-0.0039532686013759,1,15.5,29.9
2.16666666666667,11.8736720064284,23.7836500991795,6.74036033173739,-0.00395242865590451,1,15.5,29.9
2.2,11.8753873053488,24.0082563650056,6.73640874256197,-0.00395158917542027,1,15.5,29.9
2.23333333333333,11.8771173951219,24.2327308078252,6.73245799244364,-0.00395075011833512,1,15.5,29.9
2.26666666666667,11.8788622420145,24.4570734547506,6.72850808099536,-0.00394991144827905,1,15.5,29.9
2.3,11.8806218159129,24.6812843328583,6.72455900785368,-0.00394907314167892,1,15.5,29.9
2.33333333333333,11.8823960906557,24.905363469186,6.72061077266313,-0.00394823519055443,1,15.5,29.9
2.36666666666667,11.8841850433993,25.1293108907367,6.71666337506216,-0.00394739760096119,1,15.5,29.9
2.4,11.8859886533704,25.3531266244873,6.71271681467373,-0.00394656038843877,1,15.5,29.9
2.43333333333333,11.887806900426,25.5768106973989,6.70877109110146,-0.00394572357226242,1,15.5,29.9
2.46666666666667,11.8896397637933,25.800363136427,6.70482620393138,-0.0039448871700829,1,15.5,29.9
2.5,11.8914872212362,26.0237839685274,6.70088215273722,-0.00394405119415708,1,15.5,29.9
2.53333333333333,11.8933492487434,26.2470732206594,6.69693893708758,-0.00394321564964706,1,15.5,29.9
2.56666666666667,11.8952258206922,26.4702309197845,6.69299655655262,-0.00394238053496032,1,15.5,29.9
2.6,11.8971169103421,26.6932570928629,6.68905501070906,-0.00394154584355366,1,15.5,29.9
2.63333333333333,11.8990224904702,26.9161517668489,6.68511429914258,-0.00394071156647779,1,15.5,29.9
2.66666666666667,11.9009425339714,27.1389149686858,6.68117442144767,-0.00393987769491577,1,15.5,29.9
2.7,11.9028770142941,27.3615467253025,6.67723537722555,-0.00393904422211566,1,15.5,29.9
2.73333333333333,11.9048259056497,27.5840470636116,6.67329716608114,-0.00393821114441018,1,15.5,29.9
2.76666666666667,11.9067891830002,27.8064160105098,6.66935978761984,-0.00393737846129749,1,15.5,29.9
2.8,11.90876682188,28.0286535929939,6.66542325710323,-0.00393653051661236,1,15.5,29.9
2.83333333333333,11.9107587981476,28.2507598402274,6.66148770672606,-0.00393555037717075,1,15.5,29.9
2.86666666666667,11.9127650877536,28.4727347880444,6.65755339141325,-0.00393431531280797,1,15.5,29.9
2.9,11.9147856665543,28.6945784817173,6.65362061184312,-0.00393277957013627,1,15.5,29.9
2.93333333333333,11.9168205102053,28.9162909768134,6.64968969715071,-0.00393091469240847,1,15.5,29.9
2.96666666666667,11.9188695941848,29.1378723435256,6.64576124926719,-0.00392844788351798,1,15.5,29.9
3,11.9209328939664,29.3593226784457,6.64183623333108,-0.00392501593611438,1,15.5,29.9
3.03333333333333,11.9230103852433,29.5806421164879,6.63791600387133,-0.00392022945974535,1,15.5,29.9
3.06666666666667,11.9251020441754,29.8018308435614,6.63400221393059,-0.00391378994073754,1,15.5,29.9
3.1,11.9272078475481,30.0228891012088,6.63009650716799,-0.00390570676259916,1,15.5,29.9
3.13333333333333,11.9293277728194,30.2438171830581,6.62620035376611,-0.00389615340188332,1,15.5,29.9
3.16666666666667,11.9314617981052,30.4646154292611,6.62231509243452,-0.00388526133159051,1,15.5,29.9
3.2,11.9336099021404,30.6852842227676,6.61844193660153,-0.00387315583299142,1,15.5,29.9
3.23333333333333,11.9357720641961,30.9058239836116,6.61458189420893,-0.0038600423925983,1,15.5,29.9
3.26666666666667,11.9379482639829,31.1262351628759,6.61073584610343,-0.00384604810549671,1,15.5,29.9
3.3,11.9401384815968,31.3465182407444,6.60690466514405,-0.0038311809593834,1,15.5,29.9
3.33333333333333,11.9423426974905,31.5666737257815,6.60308915826843,-0.00381550687562271,1,15.5,29.9
3.36666666666667,11.9445608924301,31.7867021505946,6.59928994745038,-0.00379921081804824,1,15.5,29.9
3.4,11.9467930474395,32.0066040647133,6.59550742309738,-0.00378252435300475,1,15.5,29.9
3.43333333333333,11.9490391437498,32.2263800267937,6.59174174487893,-0.00376567821844276,1,15.5,29.9
3.46666666666667,11.9512991627539,32.4460305972812,6.58799286531997,-0.00374887955896153,1,15.5,29.9
3.5,11.9535722873692,32.6655563399456,6.58426053033291,-0.00373233498706593,1,15.5,29.9
3.53333333333333,11.9558550742115,32.8849578350838,6.58054436560025,-0.00371616473265579,1,15.5,29.9
3.56666666666667,11.9581439758633,33.1042356506903,6.57684389387529,-0.00370047172495624,1,15.5,29.9
3.6,11.9604334177291,33.323390359007,6.57315857940411,-0.00368531447117881,1,15.5,29.9
3.63333333333333,11.9627158389443,33.5424225347253,6.56948783778298,-0.00367074162113479,1,15.5,29.9
3.66666666666667,11.9649820322418,33.7613327476297,6.56583097657704,-0.00365686120594155,1,15.5,29.9
3.7,11.9672201759896,33.9801215690919,6.56218732016166,-0.00364365641537656,1,15.5,29.9
3.73333333333333,11.9694186963194,34.1987895423767,6.5585562631809,-0.0036310569807565,1,15.5,29.9
3.76666666666667,11.9715652123236,34.4173372950711,6.55496138788759,-0.00359487529331748,1,15.5,29.9
3.8,11.9736486613081,34.635771199424,6.55179452497023,-0.0031668629173538,1,15.5,29.9
3.83333333333333,11.9756588164392,34.8541163484361,6.54969910036195,-0.00209542460828338,1,15.5,29.9
3.86666666666667,11.9775914011801,35.0724181973119,6.54923645278267,-0.00046264757927883,1,15.5,29.9
3.9,11.979447466401,35.2907385243344,6.55082646037582,0.00159000759314676,1,15.5,29.9
3.93333333333333,11.9812312611133,35.5091493597691,6.55460802936992,0.00378156899410342,1,15.5,29.9
3.96666666666667,11.9829485279638,35.7277198283676,6.56032199666999,0.00571396730006857,1,15.5,29.9
4,11.9846053569495,35.9465093368239,6.56767416175594,0.00735216508595027,1,15.5,29.9
4.03333333333333,11.9862075176179,36.165567736864,6.5763858131821,0.00871165142616004,1,15.5,29.9
4.06666666666667,11.9877600925201,36.3849359674873,6.58620338411486,0.00981757093276148,1,15.5,29.9
4.1,11.9892673056881,36.6046473287767,6.59692477298227,0.010721388867406,1,15.5,29.9
4.13333333333333,11.9907324626484,36.8247290363661,6.60837827889125,0.0114535059089782,1,15.5,29.9
4.16666666666667,11.9921579431181,37.0452026944831,6.62039977181393,0.012021492922683,1,15.5,29.9
4.2,11.9935452355924,37.2660847553393,6.63284559160676,0.0124458197928332,1,15.5,29.9
4.23333333333333,11.9948950125008,37.487387322438,6.64559846843482,0.0127528768280527,1,15.5,29.9
4.26666666666667,11.996207244426,37.7091190534417,6.65857001566588,0.0129715472310625,1,15.5,29.9
4.3,11.9974813520565,37.9312864072216,6.67171975615739,0.0131497404915155,1,15.5,29.9
4.33333333333333,11.9987163852524,38.1538952535854,6.6850472891492,0.0133275329918021,1,15.5,29.9
4.36666666666667,11.9999112034892,38.3769516728053,6.69856193153931,0.013514642390116,1,15.5,29.9
4.4,12.0010646383602,38.6004620002303,6.71226838185897,0.0137064503196607,1,15.5,29.9
4.43333333333333,12.0021756230346,38.8244325650135,6.72615964102203,0.0138912591630591,1,15.5,29.9
4.46666666666667,12.0032432750999,39.0488689521836,6.7401944596218,0.0140348185997707,1,15.5,29.9
4.5,12.0042669289382,39.2737748249449,6.75430441938202,0.0141099597602183,1,15.5,29.9
4.53333333333333,12.0052461294605,39.4991515611066,6.7684244247037,0.014120005321681,1,15.5,29.9
