Time,x_ego,y_ego,velocity,acceleration,action,x_ped,y_ped
0,11.8,8.9,5,0,1,15.5,29.9
0.0333333333333333,11.8,9.06660768884189,4.99642261439338,-0.0035773856066168,1,15.5,29.9
0.0666666666666667,11.8,9.23309265311448,4.99264756783477,-0.00377504655861216,1,15.5,29.9
0.1,11.8,9.39944929692399,4.98873130122091,-0.00391626661385835,1,15.5,29.9
0.133333333333333,11.8,9.56567362451385,4.98471426828108,-0.00401703293983147,1,15.5,29.9
0.166666666666667,11.8,9.7317627870126,4.98062546389497,-0.00408880438611448,1,15.5,29.9
0.2,11.8,9.89771475756689,4.97648566969706,-0.00413979419790333,1,15.5,29.9
0.233333333333333,11.8,10.063528098494,4.97230978036584,-0.00417588933122204,1,15.5,29.9
0.266666666666667,11.8,10.2292017943893,4.96810847105553,-0.00420130931030815,1,15.5,29.9
0.3,11.800000644954,10.3947351325063,4.96388939292553,-0.00421907813000111,1,15.5,29.9
0.333333333333333,11.8000053671442,10.5601276170121,4.95965803420346,-0.00423135872207681,1,15.5,29.9
0.366666666666667,11.800019820737,10.7253789074675,4.95541834361526,-0.00423969058819385,1,15.5,29.9
0.4,11.8000509488275,10.8904887745424,4.95117317470679,-0.00424516890847393,1,15.5,29.9
0.433333333333333,11.8001055130677,11.0554570680064,4.94692457737872,-0.00424859732807015,1,15.5,29.9
0.466666666666667,11.800187511813,11.2202836937731,4.94267398959915,-0.00425058777957155,1,15.5,29.9
0.5,11.8002981681574,11.3849685977709,4.93842240838695,-0.00425158121219749,1,15.5,29.9
0.533333333333333,11.8004366771223,11.5495117547988,4.93417052681316,-0.00425188157378553,1,15.5,29.9
0.566666666666667,11.8006009154015,11.7139131608454,4.9299188359036,-0.0042516909095669,1,15.5,29.9
0.6,11.8007880369425,11.8781728276894,4.92566769340709,-0.00425114249650438,1,15.5,29.9
0.633333333333333,11.8009949283542,12.0422907789541,4.92141736670742,-0.00425032669966896,1,15.5,29.9
0.666666666666667,11.8012185331188,12.2062670470982,4.91716805866534,-0.00424930804208135,1,15.5,29.9
0.7,11.8014560709841,12.3701016710506,4.91291992368092,-0.00424813498442056,1,15.5,29.9
0.733333333333333,11.801705181431,12.5337946943292,4.90867307865569,-0.00424684502523043,1,15.5,29.9
0.766666666666667,11.801964013173,12.6973461635586,4.90442761124785,-0.00424546740784049,1,15.5,29.9
0.8,11.8022312713123,12.8607561273294,4.90018358640704,-0.00424402484080755,1,15.5,29.9
0.833333333333333,11.8025062251069,13.0240246353541,4.89594105155915,-0.00424253484789627,1,15.5,29.9
0.866666666666667,11.802788675216,13.1871517378779,4.89170004065351,-0.00424101090563145,1,15.5,29.9
0.9,11.8030788804108,13.3501374853054,4.88746057728387,-0.00423946336964143,1,15.5,29.9
0.933333333333333,11.8033774487062,13.5129819280023,4.8832226770897,-0.00423790019417503,1,15.5,29.9
0.966666666666667,11.8036852042506,13.6756851162354,4.87898634960676,-0.00423632748293468,1,15.5,29.9
1,11.8040030465107,13.8382471002085,4.87475159969731,-0.00423474990945483,1,15.5,29.9
1.03333333333333,11.8043318203769,14.0006679301586,4.87051842867975,-0.00423317101755938,1,15.5,29.9
1.06666666666667,11.8046722139862,14.1629476564716,4.86628683528422,-0.00423159339553081,1,15.5,29.9
1.1,11.8050246957445,14.3250863297862,4.8620568165464,-0.00423001873781725,1,15.5,29.9
1.13333333333333,11.8053894945671,14.487084001059,4.85782836869392,-0.00422844785247811,1,15.5,29.9
1.16666666666667,11.8057666195924,14.6489407215796,4.85360148799152,-0.0042268807024044,1,15.5,29.9
1.2,11.8061559092911,14.8106565429336,4.84937617143904,-0.00422531655248193,1,15.5,29.9
1.23333333333333,11.8065570962445,14.9722315169259,4.84515241720272,-0.00422375423631749,1,15.5,29.9
1.26666666666667,11.8069698733737,15.1336656954831,4.84093022471369,-0.00422219248903311,1,15.5,29.9
1.3,11.8073939497593,15.2949591305547,4.83670959445825,-0.00422063025543729,1,15.5,29.9
1.33333333333333,11.8078290885017,15.4561118740328,4.8324905275654,-0.00421906689285301,1,15.5,29.9
1.36666666666667,11.8082751241038,15.6171239777002,4.82827302533291,-0.0042175022324864,1,15.5,29.9
1.4,11.8087319614366,15.7779954932108,4.82405708881874,-0.00421593651416519,1,15.5,29.9
1.43333333333333,11.8091995615634,15.9387264720989,4.81984271857615,-0.00421437024259053,1,15.5,29.9
1.46666666666667,11.8096779211154,16.0993169658062,4.81562991455535,-0.00421280402080448,1,15.5,29.9
1.5,11.8101670515746,16.2597670257161,4.81141867615028,-0.00421123840506699,1,15.5,29.9
1.53333333333333,11.8106669631601,16.4200767031837,4.80720900234351,-0.00420967380677428,1,15.5,29.9
1.56666666666667,11.8111776556761,16.580246049556,4.80300089189382,-0.00420811044968339,1,15.5,29.9
1.6,11.8116991163587,16.7402751161766,4.79879434351583,-0.00420654837799361,1,15.5,29.9
1.63333333333333,11.8122313229856,16.9001639543808,4.79458935601384,-0.00420498750199449,1,15.5,29.9
1.66666666666667,11.8127742495986,17.0599126154822,4.79038592835086,-0.00420342766298099,1,15.5,29.9
1.7,11.813327872168,17.2195211507603,4.78618405965271,-0.00420186869814287,1,15.5,29.9
1.73333333333333,11.8138921722135,17.3789896114509,4.78198374916304,-0.00420031048966951,1,15.5,29.9
1.76666666666667,11.8144671374627,17.5383180487449,4.77778499617391,-0.00419875298913475,1,15.5,29.9
1.8,11.8150527597222,17.6975065137952,4.77358779995754,-0.00419719621636894,1,15.5,29.9
1.83333333333333,11.8156490309627,17.856555057728,4.76939215971874,-0.00419564023879548,1,15.5,29.9
1.86666666666667,11.8162559390144,18.0154637316567,4.76519807457778,-0.00419408514096631,1,15.5,29.9
1.9,11.8168734642059,18.1742325866938,4.76100554358324,-0.00419253099453964,1,15.5,29.9
1.93333333333333,11.8175015778522,18.3328616739567,4.75681456574643,-0.00419097783680655,1,15.5,29.9
1.96666666666667,11.8181402428888,18.4913510445678,4.75262514008428,-0.00418942566214753,1,15.5,29.9
2,11.8187894163404,18.6497007496473,4.74843726565761,-0.00418787442667501,1,15.5,29.9
2.03333333333333,11.8194490528716,18.807910840302,4.74425094159473,-0.004186324062883,1,15.5,29.9
2.06666666666667,11.8201191084805,18.9659813676129,4.74006616709578,-0.00418477449894095,1,15.5,29.9
2.1,11.8207995434696,19.1239123826242,4.73588294141895,-0.00418322567683216,1,15.5,29.9
2.13333333333333,11.8214903241119,19.2817039363361,4.73170126385423,-0.00418167756472165,1,15.5,29.9
2.16666666666667,11.822191422818,19.4393560797031,4.72752113369301,-0.00418013016121943,1,15.5,29.9
2.2,11.8229028169863,19.596868863637,4.72334255020144,-0.0041785834915764,1,15.5,29.9
2.23333333333333,11.8236244869992,19.7542423390137,4.71916551260341,-0.0041770375980299,1,15.5,29.9
2.26666666666667,11.8243564139538,19.9114765566808,4.71499002007587,-0.00417549252753879,1,15.5,29.9
2.3,11.8250985776819,20.0685715674661,4.71081607175561,-0.00417394832026119,1,15.5,29.9
2.33333333333333,11.8258509554544,20.2255274221824,4.70664366675415,-0.00417240500145954,1,15.5,29.9
2.36666666666667,11.826613521537,20.3823441716302,4.70247280417597,-0.00417086257817267,1,15.5,29.9
2.4,11.8273862475369,20.5390218665966,4.69830348313526,-0.00416932104071588,1,15.5,29.9
2.43333333333333,11.8281691033039,20.6955605578523,4.69413570276741,-0.0041677803678466,1,15.5,29.9
2.46666666666667,11.8289620580627,20.8519602961473,4.68996946223364,-0.00416624053377035,1,15.5,29.9
2.5,11.8297650814578,21.0082211322059,4.68580476071869,-0.00416470151495307,1,15.5,29.9
2.53333333333333,11.8305781442741,21.1643431167244,4.68164159742349,-0.00416316329519617,1,15.5,29.9
2.56666666666667,11.8314012187208,21.320326300369,4.67747997155555,-0.00416162586794133,1,15.5,29.9
2.6,11.8322342782934,21.4761707337763,4.67331988231969,-0.00416008923586375,1,15.5,29.9
2.63333333333333,11.8330772973329,21.6318764675554,4.66916132891147,-0.00415855340822091,1,15.5,29.9
2.66666666666667,11.8339302504534,21.7874435522904,4.66500431051436,-0.00415701839710092,1,15.5,29.9
2.7,11.8347931120099,21.9428720385425,4.66084882630071,-0.00415548421364953,1,15.5,29.9
2.73333333333333,11.83566585574,22.0981619768521,4.65669487543547,-0.00415395086524128,1,15.5,29.9
2.76666666666667,11.8365484546399,22.2533134177395,4.65254245708136,-0.00415241835411084,1,15.5,29.9
2.8,11.8374408810698,22.4083264117044,4.64839157040382,-0.00415088667754393,1,15.5,29.9
2.83333333333333,11.8383431070207,22.5632010092246,4.64424221457453,-0.00414935582928777,1,15.5,29.9
2.86666666666667,11.8392551044488,22.7179372607548,4.64009438877289,-0.00414782580163742,1,15.5,29.9
2.9,11.840176845579,22.8725352167243,4.63594809218536,-0.00414629658752919,1,15.5,29.9
2.93333333333333,11.8411083031046,23.0269949275368,4.63180332400324,-0.00414476818212606,1,15.5,29.9
2.96666666666667,11.842049450248,23.1813164435692,4.62766008341969,-0.00414324058355309,1,15.5,29.9
3,11.8430002606876,23.3354998151725,4.62351836962688,-0.00414171379280237,1,15.5,29.9
3.03333333333333,11.8439607083902,23.4895450926725,4.61937818181403,-0.00414018781285108,1,15.5,29.9
3.06666666666667,11.8449307674051,23.6434523263707,4.61523951916655,-0.00413866264748641,1,15.5,29.9
3.1,11.8459104116761,23.7972215665456,4.61110238086647,-0.00413713830007101,1,15.5,29.9
3.13333333333333,11.8468996149174,23.9508528635711,4.60696678421713,-0.00413559664934748,1,15.5,29.9
3.16666666666667,11.8478983505888,24.1043462709505,4.60283293715533,-0.00413384706179887,1,15.5,29.9
3.2,11.8489065919842,24.257701853797,4.59870132506349,-0.00413161209183688,1,15.5,29.9
3.23333333333333,11.8499243123946,24.4109196994379,4.59457284282805,-0.00412848223543616,1,15.5,29.9
3.26666666666667,11.850951485344,24.5639999354981,4.59044903934709,-0.00412380348096519,1,15.5,29.9
3.3,11.8519880848561,24.716942753137,4.58633216062375,-0.00411687872334188,1,15.5,29.9
3.33333333333333,11.8530340856696,24.8697484260351,4.58222483032934,-0.00410733029440369,1,15.5,29.9
3.36666666666667,11.8540894633284,25.022417315479,4.57812964086983,-0.00409518945951337,1,15.5,29.9
3.4,11.8551541941847,25.1749498680896,4.57404914071848,-0.00408050015135153,1,15.5,29.9
3.43333333333333,11.8562282553737,25.3273466145048,4.56998578331997,-0.00406335739850849,1,15.5,29.9
3.46666666666667,11.8573116247353,25.4796081623071,4.5659417046128,-0.0040440787071665,1,15.5,29.9
3.5,11.8584042807022,25.6317351834354,4.56191862210227,-0.00402308251053007,1,15.5,29.9
3.53333333333333,11.8595062021889,25.7837283998507,4.55791782221262,-0.00400079988965807,1,15.5,29.9
3.56666666666667,11.8606173685033,25.9355885696356,4.55394019354596,-0.00397762866665463,1,15.5,29.9
3.6,11.8617377592868,26.087316474594,4.54998628035718,-0.00395391318877802,1,15.5,29.9
3.63333333333333,11.8628673544802,26.2389129097528,4.54605634143157,-0.00392993892561755,1,15.5,29.9
3.66666666666667,11.8640061343039,26.3903786747985,4.54215040641252,-0.00390593501904934,1,15.5,29.9
3.7,11.8651540792436,26.5417145672932,4.53826832580274,-0.00388208060977213,1,15.5,29.9
3.73333333333333,11.866311170031,26.69292137743,4.5344098132982,-0.00385851250454916,1,15.5,29.9
3.76666666666667,11.8674773876157,26.843999884185,4.53057449765302,-0.00383531564517359,1,15.5,29.9
3.8,11.8686527131463,26.9949508551371,4.52676210113887,-0.00381239651414678,1,15.5,29.9
3.83333333333333,11.8698371279753,27.1457750512767,4.52297248746982,-0.00378961366905539,1,15.5,29.9
3.86666666666667,11.8710306136452,27.2964732296112,4.51920553655417,-0.00376695091564727,1,15.5,29.9
3.9,11.8722331518546,27.4470461423253,4.5154610711651,-0.00374446538907058,1,15.5,29.9
3.93333333333333,11.8734447244196,27.597494534292,4.51173882719335,-0.00372224397175369,1,15.5,29.9
3.96666666666667,11.8746653132422,27.7478191400237,4.50803844645963,-0.00370038073371326,1,15.5,29.9
4,11.8758949002857,27.8980206804123,4.50435946756075,-0.00367897889888891,1,15.5,29.9
4.03333333333333,11.8771334675563,28.0480998592247,4.50070132730712,-0.00365814025362887,1,15.5,29.9
4.06666666666667,11.8783809970894,28.1980573600696,4.49706338304417,-0.00363794426294284,1,15.5,29.9
4.1,11.8796374709401,28.3478938441013,4.4934449330213,-0.00361845002287353,1,15.5,29.9
4.13333333333333,11.8809028711736,28.4976099483247,4.48984523217999,-0.00359970084131156,1,15.5,29.9
4.16666666666667,11.8821771798515,28.6472062843576,4.48626350386734,-0.00358172831264536,1,15.5,29.9
4.2,11.8834603790149,28.7966834375243,4.48269894812336,-0.00356455574398318,1,15.5,29.9
4.23333333333333,11.8847524506632,28.9460419661445,4.47915074287715,-0.00354820524621324,1,15.5,29.9
4.26666666666667,11.8860533767279,29.0952824004458,4.47561801994955,-0.0035327229275941,1,15.5,29.9
4.3,11.8873626101762,29.2444052451197,4.47209982894332,-0.00351819100623452,1,15.5,29.9
4.33333333333333,11.888677774701,29.3934109887791,4.46859520851355,-0.00350462042977107,1,15.5,29.9
4.36666666666667,11.8899962133876,29.5423000911873,4.46510320354417,-0.00349200496938185,1,15.5,29.9
4.4,11.8913136667435,29.6910729954582,4.46162293849877,-0.00348026504539156,1,15.5,29.9
4.43333333333333,11.8926250718177,29.8397301254035,4.4581536986015,-0.00346923989727088,1,15.5,29.9
4.46666666666667,11.8939271015808,29.9882718664597,4.45469481220767,-0.00345888639382963,1,15.5,29.9
4.5,11.8952178901562,30.1366985675897,4.45124555155125,-0.00344926065642781,1,15.5,29.9
4.53333333333333,11.8964952283866,30.285010637221,4.44782461620135,-0.00342093534989818,1,15.5,29.9
4.56666666666667,11.8977583341272,30.4332129611706,4.4447305129335,-0.00309410326784398,1,15.5,29.9
4.6,11.8990080930181,30.5813236335427,4.44237702130921,-0.00235349162429443,1,15.5,29.9
4.63333333333333,11.9002465647662,30.7293723897581,4.44104790484042,-0.00132911646878409,1,15.5,29.9
4.66666666666667,11.9014765019485,30.8773967846762,4.44093927490618,-0.000108629934247872,1,15.5,29.9
4.7,11.9027009195159,31.0254399578879,4.44218930942068,0.00125003451450567,1,15.5,29.9
4.73333333333333,11.903922703799,31.1735485183591,4.44486618977355,0.00267688035286717,1,15.5,29.9
4.76666666666667,11.9051444768976,31.3217701100971,4.44896401663707,0.004097826863525,1,15.5,29.9
4.8,11.9063684564991,31.470151033934,4.45440984755525,0.00544583091817774,1,15.5,29.9
4.83333333333333,11.9075963499826,31.6187342453363,4.46107857143447,0.00666872387921291,1,15.5,29.9
4.86666666666667,11.9088293098827,31.767557919944,4.46881141522336,0.00773284378889816,1,15.5,29.9
4.9,11.9100679451908,31.9166546409864,4.47743421177157,0.00862279654820419,1,15.5,29.9
4.93333333333333,11.9113123805248,32.066051152133,4.48677275380499,0.00933854203341866,1,15.5,29.9
4.96666666666667,11.9125623521691,32.2157685540068,4.49666397660208,0.00989122279708887,1,15.5,29.9
5,11.9138173271414,32.3658228011524,4.50696287178356,0.0102988951814798,1,15.5,29.9
5.03333333333333,11.9150766300163,32.5162254040316,4.51755157677412,0.0105887049905666,1,15.5,29.9
5.06666666666667,11.9163395689577,32.6669850591345,4.5283881731306,0.01083659635648,1,15.5,29.9
5.1,11.9176055507333,32.8181104872344,4.53951042424297,0.0111222511123632,1,15.5,29.9
5.13333333333333,11.9188741625316,32.969612855942,4.55102979692995,0.0115193726869878,1,15.5,29.9
5.16666666666667,11.9201452187532,33.1215079862645,4.56310193758292,0.0120721406529638,1,15.5,29.9
5.2,11.9214187603348,33.2738166323929,4.57585885557809,0.0127569179951736,1,15.5,29.9
5.23333333333333,11.9226950147617,33.426563052106,4.5893759155922,0.0135170600141077,1,15.5,29.9
5.26666666666667,11.9239743350179,33.5797729483363,4.60366490080589,0.0142889852136934,1,15.5,29.9
5.3,11.925257133221,33.7334714554795,4.61868208724315,0.015017186437257,1,15.5,29.9
5.33333333333333,11.9265438210376,33.887681531265,4.63434338797837,0.0156613007352249,1,15.5,29.9
5.36666666666667,11.9278347646199,34.0424228908353,4.65054100768204,0.0161976197036697,1,15.5,29.9
5.4,11.9291302573339,34.1977114709166,4.667158197751,0.0166171900689598,1,15.5,29.9
5.43333333333333,11.9304305096632,34.3535593296412,4.6840805056728,0.016922307921801,1,15.5,29.9
5.46666666666667,11.9317356528846,34.5099748571431,4.70120320559953,0.0171226999267233,1,15.5,29.9
5.5,11.9330457516654,34.6669631756957,4.71843535772426,0.0172321521247323,1,15.5,29.9
5.53333333333333,11.9343608205703,34.8245266295545,4.73570127252519,0.0172659148009311,1,15.5,29.9
5.56666666666667,11.9356808403176,34.9826652918396,4.75294019889469,0.0172389263695027,1,15.5,29.9
5.6,11.9370057710602,35.1413774415282,4.77010494596229,0.0171647470675964,1,15.5,29.9
5.63333333333333,11.9383355615446,35.3006599845658,4.78715998221675,0.0170550362544581,1,15.5,29.9
5.66666666666667,11.939670154342,35.4605088083803,4.80407938850938,0.016919406292633,1,15.5,29.9
5.7,11.9410094882135,35.6209190691886,4.82084490039704,0.0167655118876562,1,15.5,29.9
5.73333333333333,11.9423534989848,35.7818854174493,4.83744416829526,0.0165992678982256,1,15.5,29.9
5.76666666666667,11.9437021201528,35.9434021697784,4.85386928948079,0.0164251211855255,1,15.5,29.9
5.8,11.9450552839805,36.1054634365905,4.87011561837364,0.0162463288928469,1,15.5,29.9
5.83333333333333,11.9464129232834,36.2680632144455,4.88618083405313,0.0160652156794967,1,15.5,29.9
5.86666666666667,11.9477749736337,36.4311954511246,4.90206423052606,0.0158833964729306,1,15.5,29.9
5.9,11.9491413754485,36.5948540902238,4.91776619095306,0.0157019604269948,1,15.5,29.9
5.93333333333333,11.9505120753966,36.7590331007667,4.93328780818818,0.0155216172351214,1,15.5,29.9
5.96666666666667,11.9518870267393,36.9237264961431,4.94863061803427,0.0153428098460928,1,15.5,29.9
6,11.9532661885109,37.0889283456437,4.96379641687583,0.0151657988415614,1,15.5,29.9
6.03333333333333,11.9546495237474,37.2546327810049,4.9787871407849,0.0149907239090687,1,15.5,29.9
6.06666666666667,11.9560369968454,37.4208339578707,4.99359834641902,0.014811205634115,1,15.5,29.9
6.1,11.9574285633511,37.5875251079084,5.00817328665284,0.0145749402338238,1,15.5,29.9
6.13333333333333,11.9588241578697,37.7546973070842,5.02245937420539,0.0142860875525512,1,15.5,29.9
6.16666666666667,11.9602237051837,37.9223409280905,5.0364640951582,0.0140047209528049,1,15.5,29.9
6.2,11.9616271638844,38.0904471500208,5.05022339964102,0.0137593044828277,1,15.5,29.9
6.23333333333333,11.9630352310942,38.2590084934547,5.06377963060881,0.0135562309677866,1,15.5,29.9
6.26666666666667,11.9644519476594,38.4280188078875,5.07717071318758,0.0133910825787673,1,15.5,29.9
6.3,11.965885704022,38.5974730309108,5.09042588928121,0.0132551760936277,1,15.5,29.9
6.33333333333333,11.9673464124992,38.7673669024452,5.1035650381778,0.0131391488965962,1,15.5,29.9
6.36666666666667,11.9688451014342,38.9376966686926,5.1165997301516,0.0130346919738029,1,15.5,29.9
6.4,11.9703894380885,39.1084588703495,5.12953495981584,0.0129352296642304,1,15.5,29.9
6.43333333333333,11.9719847242944,39.2796501481147,5.14237102849913,0.0128360686832982,1,15.5,29.9
6.46666666666667,11.9736326532694,39.4512671280926,5.15510520126833,0.0127341727691963,1,15.5,29.9
6.5,11.975331832546,39.6233063439975,5.16773312650626,0.0126279252379327,1,15.5,29.9
