Time,x_ego,y_ego,velocity,acceleration,action,x_ped,y_ped
0,11.8,8.9,7,0,1,15.5,29.9
0.0333333333333333,11.8000041796125,9.13327037938785,6.99615578816176,-0.00384421183823669,1,15.4972222222222,29.9
0.0666666666666667,11.8000303314699,9.36640659855808,6.99196956641274,-0.00418622174902605,1,15.4888888888889,29.9
0.1,11.8000926098639,9.59940075300012,6.98769531271503,-0.00427425369770873,1,15.475,29.9
0.133333333333333,11.8001983545981,9.83225377515495,6.98349833673929,-0.00419697597573787,1,15.4555555555556,29.9
0.166666666666667,11.8003501253732,10.0649678497707,6.97935694703285,-0.00414138970643929,1,15.4305555555556,29.9
0.2,11.8005475247231,10.2975445470903,6.97525557468853,-0.00410137234432195,1,15.4,29.9
0.233333333333333,11.8007885944745,10.5299849978611,6.97118306873924,-0.00407250594928765,1,15.3666666666667,29.9
0.266666666666667,11.801070739625,10.7622900188979,6.96713145698599,-0.00405161175325475,1,15.3333333333333,29.9
0.3,11.8013912463857,10.9944602028902,6.96309504433922,-0.00403641264676224,1,15.3,29.9
0.333333333333333,11.8017475156913,11.2264959824836,6.95906976104049,-0.00402528329873153,1,15.2666666666667,29.9
0.366666666666667,11.8021371394093,11.4583976759489,6.9550526957372,-0.00401706530329626,1,15.2333333333333,29.9
0.4,11.8025579201775,11.6901655197135,6.95104176336867,-0.00401093236852201,1,15.2,29.9
0.433333333333333,11.8030078951068,11.921799691522,6.94703546967681,-0.00400629369186767,1,15.1666666666667,29.9
0.466666666666667,11.8034853836359,12.1533003269063,6.94303274401881,-0.00400272565800019,1,15.1333333333333,29.9
0.5,11.8039890506013,12.3846675308923,6.93903282009106,-0.0039999239277444,1,15.1,29.9
0.533333333333333,11.8045179612248,12.6159013863282,6.93503515024424,-0.00399766984681804,1,15.0666666666667,29.9
0.566666666666667,11.8050716043341,12.8470019598425,6.93103934353105,-0.00399580671319111,1,15.0333333333333,29.9
0.6,11.8056498695,13.0779693061539,6.92704512077658,-0.00399422275447581,1,15,29.9
0.633333333333333,11.8062529773089,13.308803471241,6.92305228207517,-0.0039928387014081,1,14.9666666666667,29.9
0.666666666666667,11.8068813745532,13.5395044947211,6.91906068346958,-0.00399159860558829,1,14.9333333333333,29.9
0.7,11.8075356141409,13.7700724116654,6.91507022042285,-0.00399046304672712,1,14.9,29.9
0.733333333333333,11.8082162415235,14.000507253993,6.91108081626878,-0.00398940415407001,1,14.8666666666667,29.9
0.766666666666667,11.8089237058809,14.2308090515282,6.9070924142552,-0.00398840201358386,1,14.8333333333333,29.9
0.8,11.8096583069933,14.4609778327761,6.90310497212931,-0.00398744212589452,1,14.8,29.9
0.833333333333333,11.8104201800806,14.6910136254557,6.89911845847121,-0.00398651365809588,1,14.7666666666667,29.9
0.866666666666667,11.8112093131625,14.9209164568305,6.89513285017505,-0.00398560829616379,1,14.7333333333333,29.9
0.9,11.8120255862864,15.1506863538828,6.8911481306315,-0.00398471954354207,1,14.7,29.9
0.933333333333333,11.8128688199699,15.3803233433779,6.88716428830364,-0.00398384232785975,1,14.6666666666667,29.9
0.966666666666667,11.8137388212368,15.6098274518672,6.88318131551579,-0.00398297278784998,1,14.6333333333333,29.9
1,11.8146354188273,15.8391987056685,6.87919920738296,-0.00398210813283661,1,14.6,29.9
1.03333333333333,11.8155584834096,16.0684371308543,6.87521796088064,-0.00398124650232035,1,14.5666666666667,29.9
1.06666666666667,11.8165079327474,16.2975427532613,6.87123757408598,-0.00398038679466151,1,14.5333333333333,29.9
1.1,11.8174837249407,16.5265155985263,6.86725804561714,-0.0039795284688342,1,14.5,29.9
1.13333333333333,11.8184858445799,16.7553556921403,6.86327937427471,-0.00397867134243057,1,14.4666666666667,29.9
1.16666666666667,11.819514286912,16.9840630595106,6.85930155886187,-0.0039778154128447,1,14.4333333333333,29.9
1.2,11.820569044197,17.2126377260167,6.85532459814065,-0.00397696072121523,1,14.4,29.9
1.23333333333333,11.821650925165,17.4410797137211,6.85134854401565,-0.00397605412500202,1,14.3666666666667,29.9
1.26666666666667,11.8227642169456,17.6693890298918,6.84737346848528,-0.00397507553037357,1,14.3333333333333,29.9
1.3,11.8239158848799,17.8975656683319,6.84339941588712,-0.00397405259815198,1,14.3,29.9
1.33333333333333,11.8251151815833,18.1256096092004,6.83942648281271,-0.00397293307441071,1,14.2666666666667,29.9
1.36666666666667,11.8263752939525,18.3535208093562,6.83545481423672,-0.00397166857598918,1,14.2333333333333,29.9
1.4,11.8277112724721,18.5812992078481,6.83148446224182,-0.00397035199490237,1,14.2,29.9
1.43333333333333,11.8291366297967,18.8089447388261,6.82751547258486,-0.00396898965696479,1,14.1666666666667,29.9
1.46666666666667,11.8306647302312,19.0364573232969,6.82354784838645,-0.00396762419840879,1,14.1333333333333,29.9
1.5,11.8323054036486,19.2638368854147,6.81958132543244,-0.00396652295401179,1,14.1,29.9
1.53333333333333,11.8340617620528,19.4909965391225,6.81040563709846,-0.00917568833397642,1,14.0666666666667,29.9
1.56666666666667,11.8359313199296,19.7177051995956,6.79257701020813,-0.0178286268903332,1,14.0333333333333,29.9
1.6,11.8379087062801,19.9437321992338,6.7695625730877,-0.0230144371204224,3,14,29.9
1.63333333333333,11.8399866128296,20.1687895189075,6.73445308486826,-0.0351094882194438,3,13.9666666666667,29.9
1.66666666666667,11.8421564051592,20.3925023737766,6.68895081128956,-0.0455022735787045,3,13.9333333333333,29.9
1.7,11.8444099525527,20.6146112221283,6.6382675901087,-0.0506832211808561,3,13.9,29.9
1.73333333333333,11.846740235375,20.8350011772797,6.58587076462064,-0.0523968254880636,3,13.8666666666667,29.9
1.76666666666667,11.8491397045901,21.053557396285,6.5282949809858,-0.0575757836348396,3,13.8333333333333,29.9
1.8,11.8515973776937,21.2700208623964,6.46035319918423,-0.0679417818015668,3,13.8,29.9
1.83333333333333,11.8541020389304,21.4840748493059,6.38376923340213,-0.0765839657820964,3,13.7666666666667,29.9
1.86666666666667,11.8566413937175,21.6954604736394,6.30028845929636,-0.0834807741057766,3,13.7333333333333,29.9
1.9,11.8592022053553,21.9038611480755,6.20470249047985,-0.0955859688165077,3,13.7,29.9
1.93333333333333,11.8617739555547,22.1090177326819,6.10566749476686,-0.099034995712989,3,13.6666666666667,29.9
1.96666666666667,11.8643476397988,22.3107866644223,6.00146239979973,-0.10420509496713,3,13.6333333333333,29.9
2,11.8669174594251,22.5090821566605,5.89727649492173,-0.104185904877997,3,13.6,29.9
2.03333333333333,11.8694810004542,22.7039048838806,5.79311015278646,-0.104166342135278,3,13.5666666666667,29.9
2.06666666666667,11.8720367873906,22.8951981105104,5.68551932312926,-0.107590829657194,3,13.5333333333333,29.9
2.1,11.87458283648,23.0827895744819,5.57101664655784,-0.114502676571423,3,13.5,29.9
2.13333333333333,11.8771173545268,23.2665066705113,5.45306901468923,-0.117947631868606,3,13.4666666666667,29.9
2.16666666666667,11.8796386981992,23.4462058792459,5.32995486543971,-0.123114149249519,3,13.4333333333333,29.9
2.2,11.8821455372821,23.6218014697444,5.20686306817934,-0.12309179726037,3,13.4,29.9
2.23333333333333,11.8846360554902,23.7932077272717,5.07860563704526,-0.128257431134088,3,13.3666666666667,29.9
2.26666666666667,11.8871075704044,23.9603102567616,4.94864922300641,-0.129956414038848,3,13.3333333333333,29.9
2.3,11.8895561048077,24.122936918517,4.81006199260646,-0.138587230399944,3,13.3,29.9
2.33333333333333,11.8919767429448,24.2808865386679,4.66803298495562,-0.14202900765084,3,13.2666666666667,29.9
2.36666666666667,11.8943651271676,24.4340447986272,4.5225843967168,-0.145448588238827,3,13.2333333333333,29.9
2.4,11.8967160062251,24.58226771656,4.37188668447738,-0.150697712239418,3,13.2,29.9
2.43333333333333,11.8990236436751,24.7254077104336,4.21761538872442,-0.154271295752959,3,13.1666666666667,29.9
2.46666666666667,11.901282353837,24.8633465377317,4.05981668066132,-0.157798708063102,3,13.1333333333333,29.9
2.5,11.9034858382115,24.995938575876,3.89680176630373,-0.16301491435759,3,13.1,29.9
2.53333333333333,11.9056276940954,25.1230391601501,3.73031712038513,-0.1664846459186,3,13.0666666666667,29.9
2.56666666666667,11.9077023536612,25.2445620831366,3.5621242822022,-0.168192838182927,3,13.0333333333333,29.9
2.6,11.9097056465762,25.3605080974211,3.39568012085779,-0.166444161344416,3,13,29.9
2.63333333333333,11.9116340909073,25.470907001697,3.22927115930427,-0.16640896155352,3,12.9666666666667,29.9
2.66666666666667,11.9134841327322,25.575760134734,3.06290353562151,-0.166367623682761,3,12.9333333333333,29.9
2.7,11.9152525923505,25.6750690018893,2.89658151794106,-0.166322017680447,3,12.9,29.9
2.73333333333333,11.9169366569983,25.7688352223811,2.73030802963805,-0.166273488303013,3,12.8666666666667,29.9
2.76666666666667,11.9185338449597,25.8570604919199,2.56408503205708,-0.166222997580966,3,12.8333333333333,29.9
2.8,11.9200415057437,25.939717857041,2.39619167068679,-0.16789336137029,3,12.8,29.9
2.83333333333333,11.9214567743644,26.0167517000586,2.22662528998828,-0.169566380698506,3,12.7666666666667,29.9
2.86666666666667,11.9227766145317,26.0880816103256,2.05413623433411,-0.172489055654178,3,12.7333333333333,29.9
2.9,11.92399923536,26.1536953382329,1.88382345077005,-0.170312783564056,3,12.7,29.9
2.93333333333333,11.9251245659662,26.2136800963347,1.71639716566574,-0.167426285104311,3,12.6666666666667,29.9
2.96666666666667,11.926152874732,26.2681351350124,1.55199888172549,-0.164398283940246,3,12.6333333333333,29.9
3,11.9270846204059,26.3171624338104,1.39068517070727,-0.161313711018226,3,12.6,29.9
3.03333333333333,11.9279204256658,26.3608650966416,1.23247056263039,-0.158214608076879,3,12.5666666666667,29.9
3.06666666666667,11.9286610560883,26.399346203785,1.07733601115831,-0.155134551472076,3,12.5333333333333,29.9
3.1,11.9293074192241,26.432709059212,0.925353180121517,-0.151982831036795,3,12.5,29.9
3.13333333333333,11.9298606299784,26.4610616189022,0.776677065821501,-0.148676114300016,3,12.4666666666667,29.9
3.16666666666667,11.9303219513579,26.484513373661,0.631231060152514,-0.145446005668988,3,12.4333333333333,29.9
3.2,11.9306931789319,26.5031992327888,0.490684078488488,-0.140546981664026,3,12.4,29.9
3.23333333333333,11.9309762240506,26.5172547607079,0.353370443544404,-0.137313634944084,3,12.3666666666667,29.9
3.26666666666667,11.9311726220879,26.5267870632884,0.219235344443117,-0.134135099101287,3,12.3333333333333,29.9
3.3,11.9312839480448,26.5319008530181,0.0882778903656009,-0.130957454077516,3,12.3,29.9
3.33333333333333,11.9313185114251,26.5331032664177,0.0190785285066049,-0.069199361858996,3,12.2666666666667,29.9
3.36666666666667,11.9313034968813,26.5320375146369,0.0489554954807588,0.0298769669741539,4,12.2333333333333,29.9
3.4,11.9312680356384,26.5304106298122,0.00439794362839796,-0.0445575518523608,3,12.2,29.9
3.43333333333333,11.9312680356384,26.5304106298122,0.0055050099769284,0.00110706634853043,5,12.1666666666667,29.9
3.46666666666667,11.9312680356384,26.5304106298122,0.00690696743727945,0.00140195746035106,5,12.1333333333333,29.9
3.5,11.9312680356384,26.5304106298122,0.00846385286190893,0.00155688542462947,5,12.1,29.9
3.53333333333333,11.9312680356384,26.5304106298122,0.010007468936934,0.00154361607502507,5,12.0666666666667,29.9
3.56666666666667,11.9312680356384,26.5304106298122,0.01136515716203,0.001357688225096,5,12.0333333333333,29.9
3.6,11.9312680356384,26.5304106298122,0.0123803388227772,0.0010151816607472,5,12,29.9
3.63333333333333,11.9312680356384,26.5304106298122,0.0129285432261983,0.000548204403421062,5,11.9666666666667,29.9
3.66666666666667,11.9312680356384,26.5304106298122,0.0129282229723679,-3.20253830324649e-07,5,11.9333333333333,29.9
3.7,11.9312680356384,26.5304106298122,0.0123461942246803,-0.000582028747687636,5,11.9,29.9
3.73333333333333,11.9312680356384,26.5304106298122,0.0111980025990002,-0.00114819162568012,5,11.8666666666667,29.9
3.76666666666667,11.9312680356384,26.5304106298122,0.00954388025838791,-0.00165412234061227,5,11.8333333333333,29.9
3.8,11.9312680356384,26.5304106298122,0.00748121570200517,-0.00206266455638274,5,11.8,29.9
3.83333333333333,11.9312680356384,26.5304106298122,0.00513460300279653,-0.00234661269920864,5,11.7666666666667,29.9
3.86666666666667,11.9312680356384,26.5304106298122,0.00264457860317709,-0.00249002439961944,5,11.7333333333333,29.9
3.9,11.9312680356384,26.5304106298122,0.000156104404658646,-0.00248847419851844,5,11.7,29.9
3.93333333333333,11.9312680356384,26.5304106298122,0.00219226655812272,0.00203616215346408,5,11.6666666666667,29.9
3.96666666666667,11.9312680356384,26.5304106298122,0.00427778093218143,0.00208551437405871,5,11.6333333333333,29.9
4,11.9312680356384,26.5304106298122,0.00600087888034538,0.00172309794816395,5,11.6,29.9
4.03333333333333,11.9312680356384,26.5304106298122,0.00729025710080453,0.00128937822045915,5,11.5666666666667,29.9
4.06666666666667,11.9312680356384,26.5304106298122,0.00810548126721281,0.000815224166408278,5,11.5333333333333,29.9
4.1,11.9312680356384,26.5304106298122,0.00843722196495864,0.00033174069774583,5,11.5,29.9
4.13333333333333,11.9312680356384,26.5304106298122,0.00830535078257621,-0.000131871182382432,5,11.4666666666667,29.9
4.16666666666667,11.9312680356384,26.5304106298122,0.00775525736302226,-0.000550093419553943,5,11.4333333333333,29.9
4.2,11.9312680356384,26.5304106298122,0.00685283050949075,-0.000902426853531513,5,11.4,29.9
4.23333333333333,11.9312680356384,26.5304106298122,0.00567858688713438,-0.00117424362235637,5,11.3666666666667,29.9
4.26666666666667,11.9312680356384,26.5304106298122,0.0043214323926409,-0.00135715449449347,5,11.3333333333333,29.9
4.3,11.9312680356384,26.5304106298122,0.00287250908306634,-0.00144892330957456,5,11.3,29.9
4.33333333333333,11.9312680356384,26.5304106298122,0.00141952145130558,-0.00145298763176076,5,11.2666666666667,29.9
4.36666666666667,11.9312680356384,26.5304106298122,4.18574808623963e-05,-0.00137766397044318,5,11.2333333333333,29.9
4.4,11.9312680356384,26.5304106298122,0.00119326978726659,0.00115141230640419,5,11.2,29.9
4.43333333333333,11.9312680356384,26.5304106298122,0.0022335279195495,0.00104025813228291,5,11.1666666666667,29.9
4.46666666666667,11.9312680356384,26.5304106298122,0.00304297621573747,0.000809448296187971,5,11.1333333333333,29.9
4.5,11.9312680356384,26.5304106298122,0.00360242238863516,0.000559446172897695,5,11.1,29.9
4.53333333333333,11.9312680356384,26.5304106298122,0.00390873385724888,0.000306311468613713,5,11.0666666666667,29.9
4.56666666666667,11.9312680356384,26.5304106298122,0.00397326594869076,6.4532091441887e-05,5,11.0333333333333,29.9
4.6,11.9312680356384,26.5304106298122,0.00381960540342773,-0.000153660545263036,5,11,29.9
4.63333333333333,11.9312680356384,26.5304106298122,0.00348084645123883,-0.000338758952188894,5,10.9666666666667,29.9
4.66666666666667,11.9312680356384,26.5304106298122,0.00299661941813496,-0.000484227033103873,5,10.9333333333333,29.9
4.7,11.9312680356384,26.5304106298122,0.00241008029147404,-0.000586539126660921,5,10.9,29.9
4.73333333333333,11.9312680356384,26.5304106298122,0.0017650465179757,-0.00064503377349834,5,10.8666666666667,29.9
4.76666666666667,11.9312680356384,26.5304106298122,0.00110343253549381,-0.000661613982481894,5,10.8333333333333,29.9
4.8,11.9312680356384,26.5304106298122,0.000463101285776083,-0.000640331249717722,5,10.8,29.9
4.83333333333333,11.9312680356384,26.5304106298122,0.000123791715039547,-0.000339309570736536,5,10.7666666666667,29.9
4.86666666666667,11.9312680356384,26.5304106298122,0.000631924459398249,0.000508132744358702,5,10.7333333333333,29.9
4.9,11.9312680356384,26.5304106298122,0.00104340390708367,0.000411479447685416,5,10.7,29.9
4.93333333333333,11.9312680356384,26.5304106298122,0.00134786188234307,0.000304457975259407,5,10.6666666666667,29.9
4.96666666666667,11.9312680356384,26.5304106298122,0.00154210829754238,0.000194246415199307,5,10.6333333333333,29.9
5,11.9312680356384,26.5304106298122,0.00162941761633553,8.73093187931469e-05,5,10.6,29.9
5.03333333333333,11.9312680356384,26.5304106298122,0.00161853643651169,-1.08811798238398e-05,5,10.5666666666667,29.9
5.06666666666667,11.9312680356384,26.5304106298122,0.00152250519652816,-9.6031239983529e-05,5,10.5333333333333,29.9
5.1,11.9312680356384,26.5304106298122,0.00135738589650281,-0.000165119300025348,5,10.5,29.9
5.13333333333333,11.9312680356384,26.5304106298122,0.00114098127984792,-0.00021640461665489,5,10.4666666666667,29.9
5.16666666666667,11.9312680356384,26.5304106298122,0.00089162025300844,-0.00024936102683948,5,10.4333333333333,29.9
5.2,11.9312680356384,26.5304106298122,0.000627070640176448,-0.000264549612831992,5,10.4,29.9
5.23333333333333,11.9312680356384,26.5304106298122,0.00036362490546354,-0.000263445734712909,5,10.3666666666667,29.9
5.26666666666667,11.9312680356384,26.5304106298122,0.000115388393298838,-0.000248236512164702,5,10.3333333333333,29.9
5.3,11.9312680356384,26.5304106298122,0.000106216018880709,-9.17237441812915e-06,5,10.3,29.9
5.33333333333333,11.9312680356384,26.5304106298122,0.000292727321018372,0.000186511302137664,5,10.2666666666667,29.9
5.36666666666667,11.9312680356384,26.5304106298122,0.000438722678220258,0.000145995357201886,5,10.2333333333333,29.9
5.4,11.9312680356384,26.5304106298122,0.000640325886488158,0.000201603208267899,5,10.2,29.9
5.43333333333333,11.9312722556939,26.5306653394869,0.0109203909582375,0.0102800650717493,5,10.1666666666667,29.9
5.46666666666667,11.9312819382063,26.5312497567939,0.024198571849026,0.0132781808907885,5,10.1333333333333,29.9
5.5,11.9313036883427,26.5325623744541,0.0545723597868269,0.030373787937801,4,10.1,29.9
5.53333333333333,11.9313454641455,26.535082894872,0.0966282893347747,0.0420559295479478,4,10.0666666666667,29.9
5.56666666666667,11.9314127272968,26.5391391604173,0.146681566382718,0.0500532770479437,4,10.0333333333333,29.9
5.6,11.9315074940093,26.5448487694529,0.195806607054502,0.0491250406717837,4,10,29.9
5.63333333333333,11.9316293215056,26.5521775128864,0.243822996583851,0.0480163895293486,4,9.96666666666667,29.9
5.66666666666667,11.9317777683006,26.5610870474422,0.290675345651696,0.0468523490678456,4,9.93333333333333,29.9
5.7,11.9319524781568,26.5715393620309,0.336413382281762,0.0457380366300653,4,9.9,29.9
5.73333333333333,11.9321532086681,26.5834981475466,0.381083418562415,0.0446700362806539,4,9.86666666666667,29.9
5.76666666666667,11.9323798275946,26.5969284931549,0.424723216916639,0.0436397983542237,4,9.83333333333334,29.9
5.8,11.9326323051074,26.6117966316356,0.467363828457038,0.0426406115403992,4,9.8,29.9
5.83333333333333,11.9329106988231,26.6280695575447,0.509016640079517,0.0416528116224791,4,9.76666666666667,29.9
5.86666666666667,11.9332151270611,26.6457142413017,0.549675541502065,0.0406589014225474,4,9.73333333333333,29.9
5.9,11.9335457487549,26.6646975342199,0.589341646140097,0.0396661046380322,4,9.7,29.9
5.93333333333333,11.9339027450112,26.6849864237492,0.628022654507876,0.0386810083677794,4,9.66666666666667,29.9
5.96666666666667,11.9342862964041,26.706548223204,0.665730824456691,0.0377081699488143,4,9.63333333333333,29.9
6,11.9346965575912,26.7293507166784,0.702484198370333,0.0367533739136426,4,9.6,29.9
6.03333333333333,11.9351336141589,26.75336281619,0.738336581638779,0.0358523832684461,4,9.56666666666667,29.9
6.06666666666667,11.9355973922159,26.7785555437009,0.77335084907972,0.0350142674409409,4,9.53333333333333,29.9
6.1,11.9360877131892,26.8049021896575,0.807633022348812,0.0342821732690917,4,9.5,29.9
6.13333333333333,11.936604466319,26.8323879365503,0.841947699694907,0.0343146773460949,4,9.46666666666667,29.9
6.16666666666667,11.9371481514269,26.8610425894745,0.878145224361546,0.0361975246666394,4,9.43333333333333,29.9
6.2,11.9377202831904,26.8909641791939,0.918321673960398,0.0401764495988511,4,9.4,29.9
6.23333333333333,11.9383234002742,26.9223180871235,0.964409205681169,0.0460875317207712,4,9.36666666666667,29.9
6.26666666666667,11.938960971774,26.9553322869531,1.01830909487728,0.0538998891961074,4,9.33333333333333,29.9
6.3,11.9396374290004,26.9903054206019,1.08239139601767,0.0640823011403902,4,9.3,29.9
6.33333333333333,11.9403585462562,27.027620266646,1.15926153033255,0.0768701343148794,4,9.26666666666667,29.9
