Time,x_ego,y_ego,velocity,acceleration,action,x_ped,y_ped
0,11.8,15.9,5,0,1,15.5,29.9
0.0333333333333333,11.7999993820357,16.0666076888418,4.99642261466935,-0.00357738533064911,1,15.4972222222222,29.9
0.0666666666666667,11.7999954176174,16.2330926531086,4.9926475711652,-0.00377504350415148,1,15.4888888888889,29.9
0.1,11.7999857492211,16.3994492968689,4.98873131359086,-0.00391625757433989,1,15.475,29.9
0.133333333333333,11.799969018556,16.5656736242594,4.98471429628857,-0.0040170173022851,1,15.4555555555556,29.9
0.166666666666667,11.7999446938162,16.7317627862219,4.98062551192022,-0.00408878436835014,1,15.4305555555556,29.9
0.2,11.7999128576518,16.8977147556598,4.97648573855818,-0.00413977336204674,1,15.4,29.9
0.233333333333333,11.7998740001982,17.0635280946344,4.97230986758252,-0.00417587097565786,1,15.3666666666667,29.9
0.266666666666667,11.7998288436549,17.2292017875179,4.96810857203838,-0.00420129554413506,1,15.3333333333333,29.9
0.3,11.7997794678025,17.3947351215435,4.9638894807096,-0.0042190913287854,1,15.3,29.9
0.333333333333333,11.799732260677,17.5601276016004,4.95965807580098,-0.00423140490861762,1,15.2666666666667,29.9
0.366666666666667,11.7996928026969,17.7253788883507,4.95541831973028,-0.00423975607070393,1,15.2333333333333,29.9
0.4,11.7996645415976,17.890488753671,4.95117304922245,-0.00424527050783219,1,15.2,29.9
0.433333333333333,11.7996491138245,18.0554570488136,4.94692428614114,-0.00424876308130973,1,15.1666666666667,29.9
0.466666666666667,11.7996467575974,18.2202836817424,4.94267346897789,-0.00425081716324893,1,15.1333333333333,29.9
0.5,11.7996567263166,18.384968601059,4.93842162251811,-0.00425184645977428,1,15.1,29.9
0.533333333333333,11.7996776489355,18.5495117845946,4.93416947943786,-0.00425214308025268,1,15.0666666666667,29.9
0.566666666666667,11.7997078172266,18.7139132312759,4.92991756581539,-0.00425191362247102,1,15.0333333333333,29.9
0.6,11.7997454029834,18.87817295528,4.92566626072897,-0.00425130508641569,1,15,29.9
0.633333333333333,11.799788619549,19.0422909818007,4.92141583789322,-0.00425042283575472,1,14.9666666666667,29.9
0.666666666666667,11.7998358433687,19.2062673439641,4.91716649504086,-0.00424934285235956,1,14.9333333333333,29.9
0.7,11.7998857062343,19.3701020805761,4.91291837489553,-0.0042481201453306,1,14.9,29.9
0.733333333333333,11.7999371617723,19.5337952344812,4.90867158026498,-0.00424679463055,1,14.8666666666667,29.9
0.766666666666667,11.7999895240711,19.6973468513725,4.90442618495227,-0.00424539531270884,1,14.8333333333333,29.9
0.8,11.800042474199,19.8607569789377,4.90018224167503,-0.00424394327723476,1,14.8,29.9
0.833333333333333,11.8000960321156,20.0240256662514,4.89593978784881,-0.00424245382622157,1,14.7666666666667,29.9
0.866666666666667,11.8001504960873,20.1871529633477,4.89169884983808,-0.00424093801073244,1,14.7333333333333,29.9
0.9,11.8002063475943,20.3500807894439,4.88397162529757,-0.00772722454050889,1,14.7,29.9
0.933333333333333,11.8002641234873,20.5125494312283,4.86414810905422,-0.0198235162433544,3,14.6666666666667,29.9
0.966666666666667,11.8003243176051,20.6741553481254,4.83220859591807,-0.0319395131361455,3,14.6333333333333,29.9
1,11.800387304312,20.8344373129164,4.7847116340377,-0.0474969618803724,3,14.6,29.9
1.03333333333333,11.8004532422503,20.9927325653238,4.7130068499878,-0.0717047840499001,3,14.5666666666667,29.9
1.06666666666667,11.8005220991155,21.1484362734261,4.62922010359743,-0.0837867463903663,3,14.5333333333333,29.9
1.1,11.8005936819207,21.3011167122834,4.53161222590211,-0.0976078776953218,3,14.5,29.9
1.13333333333333,11.8006676422544,21.4503997189088,4.4253762682739,-0.106235957628212,3,14.4666666666667,29.9
1.16666666666667,11.8007435470757,21.5960555128994,4.31398236659163,-0.111393901682273,3,14.4333333333333,29.9
1.2,11.8008209080621,21.7379121995913,4.19743370426166,-0.116548662329962,3,14.4,29.9
1.23333333333333,11.8008992119788,21.8757979819784,4.0757328935271,-0.121700810734562,3,14.3666666666667,29.9
1.26666666666667,11.8009779568794,22.0095411480277,3.94888209003092,-0.126850803496184,3,14.3333333333333,29.9
1.3,11.8010566858291,22.1389987638486,3.81860522433755,-0.130276865693368,3,14.3,29.9
1.33333333333333,11.8011350209691,22.2641144305635,3.68836966746232,-0.13023555687523,3,14.2666666666667,29.9
1.36666666666667,11.8012126322435,22.3848317938773,3.55471004929778,-0.133659618164542,3,14.2333333333333,29.9
1.4,11.8012892314817,22.5010945363657,3.42109331810857,-0.133616731189206,3,14.2,29.9
1.43333333333333,11.8013645861738,22.6129041366389,3.28752003547173,-0.133573282636841,3,14.1666666666667,29.9
1.46666666666667,11.8014385000554,22.720291154913,3.15573465500436,-0.131785380467373,3,14.1333333333333,29.9
1.5,11.8015107801199,22.8232570897091,3.02224966078851,-0.133484994215847,3,14.1,29.9
1.53333333333333,11.8015812325712,22.9217743763555,2.88880966737166,-0.13343999341685,3,14.0666666666667,29.9
1.56666666666667,11.8016496888489,23.0158445181375,2.7554151970745,-0.133394470297159,3,14.0333333333333,29.9
1.6,11.801716008494,23.1054980825491,2.62381054604569,-0.131604651028808,3,14,29.9
1.63333333333333,11.8017800822231,23.1907943319186,2.49397384438699,-0.129836701658701,3,13.9666666666667,29.9
1.66666666666667,11.8018418042171,23.2717634484635,2.36418253089409,-0.129791313492905,3,13.9333333333333,29.9
1.7,11.8019010717569,23.3484068976507,2.23443341970826,-0.129749111185821,3,13.9,29.9
1.73333333333333,11.8019577979923,23.4207290996362,2.10507411405976,-0.129359305648506,3,13.8666666666667,29.9
1.76666666666667,11.8020119204956,23.4887641257921,1.97741247590347,-0.127661638156292,3,13.8333333333333,29.9
1.8,11.8020634005138,23.5525830961461,1.85216637014933,-0.125246105754138,3,13.8,29.9
1.83333333333333,11.8021122062957,23.6122697716595,1.72948472382582,-0.122681646323505,3,13.7666666666667,29.9
1.86666666666667,11.8021583221933,23.6679379617122,1.61104593806926,-0.118438785756559,3,13.7333333333333,29.9
1.9,11.8022017481456,23.7197284964993,1.49681931931824,-0.114226618751029,3,13.7,29.9
1.93333333333333,11.8022424853316,23.7677803713531,1.38671055743215,-0.110108761886082,3,13.6666666666667,29.9
1.96666666666667,11.8022805208155,23.8122010062233,1.27893325086887,-0.107777306563286,3,13.6333333333333,29.9
2,11.8023158298474,23.8530669147492,1.17340826138811,-0.105524989480759,3,13.6,29.9
2.03333333333333,11.8023484121514,23.8904806384811,1.07179292021222,-0.101615341175889,3,13.5666666666667,29.9
2.06666666666667,11.8023782769009,23.9245439983453,0.972396672532747,-0.0993962476794741,3,13.5333333333333,29.9
2.1,11.8024054455891,23.9553613990512,0.877042147850262,-0.0953545246824848,3,13.5,29.9
2.13333333333333,11.8024299873488,23.9830960136212,0.787404999280594,-0.089637148569668,3,13.4666666666667,29.9
2.16666666666667,11.8024519980187,24.0079361687283,0.703345845449037,-0.0840591538315569,3,13.4333333333333,29.9
2.2,11.8024715989335,24.0300939399967,0.626440765099863,-0.0769050803491743,3,13.4,29.9
2.23333333333333,11.8024889556167,24.0498354482935,0.55836205519993,-0.0680787098999327,3,13.3666666666667,29.9
2.26666666666667,11.8025042412345,24.0674248447395,0.497299840693131,-0.0610622145067987,3,13.3333333333333,29.9
2.3,11.8025175789661,24.0830367235163,0.43969543569502,-0.057604404998111,3,13.3,29.9
2.33333333333333,11.8025290584064,24.0967846151779,0.385439763129942,-0.0542556725650784,3,13.2666666666667,29.9
2.36666666666667,11.8025387893164,24.1088069345938,0.336141122425701,-0.0492986407042409,3,13.2333333333333,29.9
2.4,11.8025468625771,24.1192089450666,0.288206687549047,-0.0479344348766543,3,13.2,29.9
2.43333333333333,11.8025533446041,24.1280629491687,0.243252915907196,-0.0449537716418504,3,13.1666666666667,29.9
2.46666666666667,11.802558303897,24.1354670212694,0.201213353818091,-0.0420395620891055,3,13.1333333333333,29.9
2.5,11.8025618282643,24.141546472426,0.163800110172676,-0.0374132436454145,3,13.1,29.9
2.53333333333333,11.8025639912765,24.1463979382756,0.127562599598239,-0.0362375105744374,3,13.0666666666667,29.9
2.56666666666667,11.8025648501064,24.1500891012935,0.0942187153129458,-0.0333438842852931,3,13.0333333333333,29.9
2.6,11.8025644623234,24.1526870955289,0.0620298335649877,-0.0321888817479582,3,13,29.9
2.63333333333333,11.8025628654613,24.1542293800929,0.0310094220986429,-0.0310204114663448,3,12.9666666666667,29.9
2.66666666666667,11.8025600942545,24.1547523589476,0.00345926050513677,-0.0275501615935061,3,12.9333333333333,29.9
2.7,11.8025564354934,24.1546878710888,0.00363548853591186,0.000176228030775092,5,12.9,29.9
2.73333333333333,11.8025522736183,24.1546233835457,0.00279452637032152,-0.000840962165590339,5,12.8666666666667,29.9
2.76666666666667,11.8025522736183,24.1546233835457,0.00255251571905039,-0.000242010651271132,5,12.8333333333333,29.9
2.8,11.8025522736183,24.1546233835457,0.0023557700743366,-0.000196745644713788,5,12.8,29.9
2.83333333333333,11.8025522736183,24.1546233835457,0.00219837123325845,-0.000157398841078155,5,12.7666666666667,29.9
2.86666666666667,11.8025522736183,24.1546233835457,0.00206654909766428,-0.000131822135594171,5,12.7333333333333,29.9
2.9,11.8025522736183,24.1546233835457,0.00194267865736685,-0.00012387044029743,5,12.7,29.9
2.93333333333333,11.8025522736183,24.1546233835457,0.00180881674531314,-0.000133861912053703,5,12.6666666666667,29.9
2.96666666666667,11.8025522736183,24.1546233835457,0.00164954607024125,-0.000159270675071896,5,12.6333333333333,29.9
3,11.8025522736183,24.1546233835457,0.00145399570835784,-0.000195550361883414,5,12.6,29.9
3.03333333333333,11.8025522736183,24.1546233835457,0.00121700077711531,-0.000236994931242522,5,12.5666666666667,29.9
3.06666666666667,11.8025522736183,24.1546233835457,0.000939443769616992,-0.000277557007498321,5,12.5333333333333,29.9
3.1,11.8025522736183,24.1546233835457,0.000627882353756155,-0.000311561415860836,5,12.5,29.9
3.13333333333333,11.8025522736183,24.1546233835457,0.000293611612436206,-0.00033427074131995,5,12.4666666666667,29.9
3.16666666666667,11.8025522736183,24.1546233835457,4.86672908549579e-05,-0.000244944321581248,5,12.4333333333333,29.9
3.2,11.8025522736183,24.1546233835457,0.000382393784744019,0.000333726493889062,5,12.4,29.9
3.23333333333333,11.8025522736183,24.1546233835457,0.000690740683614909,0.00030834689887089,5,12.3666666666667,29.9
3.26666666666667,11.8025522736183,24.1546233835457,0.000958104975257004,0.000267364291642095,5,12.3333333333333,29.9
3.3,11.8025522736183,24.1546233835457,0.00117137807318399,0.000213273097926987,5,12.3,29.9
3.33333333333333,11.8025522736183,24.1546233835457,0.0013209114983718,0.000149533425187806,5,12.2666666666667,29.9
3.36666666666667,11.8025522736183,24.1546233835457,0.00140112995655728,8.02184581854867e-05,5,12.2333333333333,29.9
3.4,11.8025522736183,24.1546233835457,0.00141077832648952,9.64836993223709e-06,5,12.2,29.9
3.43333333333333,11.8025522736183,24.1546233835457,0.00135281978551319,-5.79585409763339e-05,5,12.1666666666667,29.9
3.46666666666667,11.8025522736183,24.1546233835457,0.00123402743853078,-0.000118792346982402,5,12.1333333333333,29.9
3.5,11.8025522736183,24.1546233835457,0.00106433032550606,-0.000169697113024726,5,12.1,29.9
3.53333333333333,11.8025522736183,24.1546233835457,0.000855986145802694,-0.000208344179703365,5,12.0666666666667,29.9
3.56666666666667,11.8025522736183,24.1546233835457,0.00062265761265312,-0.000233328533149574,5,12.0333333333333,29.9
3.6,11.8025522736183,24.1546233835457,0.000378467669469341,-0.000244189943183778,5,12,29.9
3.63333333333333,11.8025522736183,24.1546233835457,0.00013710184965842,-0.000241365819810922,5,11.9666666666667,29.9
3.66666666666667,11.8025522736183,24.1546233835457,8.89849360006225e-05,-4.81169136577972e-05,5,11.9333333333333,29.9
3.7,11.8025522736183,24.1546233835457,0.00028921361266523,0.000200228676664608,5,11.9,29.9
3.73333333333333,11.8025522736183,24.1546233835457,0.000455349675919473,0.000166136063254243,5,11.8666666666667,29.9
3.76666666666667,11.8025522736183,24.1546233835457,0.00058178219689323,0.000126432520973757,5,11.8333333333333,29.9
3.8,11.8025522736183,24.1546233835457,0.000665614134306214,8.38319374129841e-05,5,11.8,29.9
3.83333333333333,11.8025522736183,24.1546233835457,0.000706577470765974,4.09633364597597e-05,5,11.7666666666667,29.9
3.86666666666667,11.8025522736183,24.1546233835457,0.000706796745584311,2.19274818337445e-07,5,11.7333333333333,29.9
3.9,11.8025522736183,24.1546233835457,0.000670431815875089,-3.63649297092217e-05,5,11.7,29.9
3.93333333333333,11.8025522736183,24.1546233835457,0.000603235012710016,-6.71968031650733e-05,5,11.6666666666667,29.9
3.96666666666667,11.8025522736183,24.1546233835457,0.000512059355527948,-9.11756571820676e-05,5,11.6333333333333,29.9
4,11.8025522736183,24.1546233835457,0.000404353410514086,-0.000107705945013863,5,11.6,29.9
4.03333333333333,11.8025522736183,24.1546233835457,0.000287675127918417,-0.000116678282595669,5,11.5666666666667,29.9
4.06666666666667,11.8025522736183,24.1546233835457,0.000169252060090584,-0.000118423067827833,5,11.5333333333333,29.9
4.1,11.8025522736183,24.1546233835457,5.56092822481784e-05,-0.000113642777842405,5,11.5,29.9
4.13333333333333,11.8025522736183,24.1546233835457,4.77203490282633e-05,-7.88893321991515e-06,5,11.4666666666667,29.9
4.16666666666667,11.8025522736183,24.1546233835457,0.000136395752019229,8.86754029909656e-05,5,11.4333333333333,29.9
4.2,11.8025522736183,24.1546233835457,0.000207375585335736,7.09798333165075e-05,5,11.4,29.9
4.23333333333333,11.8025522736183,24.1546233835457,0.000258938949727673,5.15633643919371e-05,5,11.3666666666667,29.9
4.26666666666667,11.8025522736183,24.1546233835457,0.000290627906140227,3.16889564125531e-05,5,11.3333333333333,29.9
4.3,11.8025522736183,24.1546233835457,0.000303124491139017,1.24965849987908e-05,5,11.3,29.9
4.33333333333333,11.8025522736183,24.1546233835457,0.000298077284435488,-5.04720670352907e-06,5,11.2666666666667,29.9
4.36666666666667,11.8025522736183,24.1546233835457,0.000277893740782481,-2.01835436530077e-05,5,11.2333333333333,29.9
4.4,11.8025522736183,24.1546233835457,0.000245514526263385,-3.23792145190956e-05,5,11.2,29.9
4.43333333333333,11.8025522736183,24.1546233835457,0.000204185142281335,-4.13293839820497e-05,5,11.1666666666667,29.9
4.46666666666667,11.8025522736183,24.1546233835457,0.000157238366444401,-4.69467758369348e-05,5,11.1333333333333,29.9
4.5,11.8025522736183,24.1546233835457,0.000107898699402972,-4.9339667041429e-05,5,11.1,29.9
4.53333333333333,11.8025522736183,24.1546233835457,5.91172996354044e-05,-4.87813997675672e-05,5,11.0666666666667,29.9
4.56666666666667,11.8025522736183,24.1546233835457,1.34430263531071e-05,-4.56742732822973e-05,5,11.0333333333333,29.9
4.6,11.8025522736183,24.1546233835457,2.7067612881203e-05,1.3624586528096e-05,5,11,29.9
4.63333333333333,11.8025522736183,24.1546233835457,6.09014339662634e-05,3.38338210850604e-05,5,10.9666666666667,29.9
4.66666666666667,11.8025522736183,24.1546233835457,8.71025795769396e-05,2.62011456106761e-05,5,10.9333333333333,29.9
4.7,11.8025522736183,24.1546233835457,0.000105253528995248,1.81509494183089e-05,5,10.9,29.9
4.73333333333333,11.8025522736183,24.1546233835457,0.000115428473455363,1.01749444601149e-05,5,10.8666666666667,29.9
4.76666666666667,11.8025522736183,24.1546233835457,0.000118125303227402,2.69682977203852e-06,5,10.8333333333333,29.9
4.8,11.8025522736183,24.1546233835457,0.00011418285757226,-3.9424456551416e-06,5,10.8,29.9
4.83333333333333,11.8025522736183,24.1546233835457,0.00010469005259264,-9.49280497961992e-06,5,10.7666666666667,29.9
4.86666666666667,11.8025522736183,24.1546233835457,9.08930868152729e-05,-1.37969657773674e-05,5,10.7333333333333,29.9
4.9,11.8025522736183,24.1546233835457,7.41062060126616e-05,-1.67868808026113e-05,5,10.7,29.9
4.93333333333333,11.8025522736183,24.1546233835457,5.56305707487438e-05,-1.84756352639178e-05,5,10.6666666666667,29.9
4.96666666666667,11.8025522736183,24.1546233835457,3.66846972964894e-05,-1.89458734522544e-05,5,10.6333333333333,29.9
5,11.8025522736183,24.1546233835457,1.8348815984399e-05,-1.83358813120905e-05,5,10.6,29.9
5.03333333333333,11.8025522736183,24.1546233835457,1.52438362435089e-06,-1.68244323600481e-05,5,10.5666666666667,29.9
5.06666666666667,11.8025522736183,24.1546233835457,1.30910399088093e-05,1.15666562844584e-05,5,10.5333333333333,29.9
5.1,11.8025522736183,24.1546233835457,2.50142383594857e-05,1.19231984506764e-05,5,10.5,29.9
5.13333333333333,11.8025522736183,24.1546233835457,3.39735308809852e-05,8.95929252149949e-06,5,10.4666666666667,29.9
5.16666666666667,11.8025522736183,24.1546233835457,3.98946824962314e-05,5.92115161524623e-06,5,10.4333333333333,29.9
5.2,11.8025522736183,24.1546233835457,4.28778695499924e-05,2.98318705376094e-06,5,10.4,29.9
5.23333333333333,11.8025522736183,24.1546233835457,4.31682158904977e-05,2.9034634050536e-07,5,10.3666666666667,29.9
5.26666666666667,11.8025522736183,24.1546233835457,4.11224270607704e-05,-2.04578882972739e-06,5,10.3333333333333,29.9
5.3,11.8025522736183,24.1546233835457,3.71739164397076e-05,-3.94851062106271e-06,5,10.3,29.9
5.33333333333333,11.8025522736183,24.1546233835457,3.17985671464377e-05,-5.37534929326998e-06,5,10.2666666666667,29.9
5.36666666666667,11.8025522736183,24.1546233835457,7.31294919608604e-05,4.13309248144227e-05,5,10.2333333333333,29.9
5.4,11.8025527240692,24.1553256208142,0.0406992280229318,0.040626098530971,4,10.2,29.9
5.43333333333333,11.8025541410928,24.1575347003388,0.0917580334623861,0.0510588054394543,4,10.1666666666667,29.9
5.46666666666667,11.8025566427771,24.1614345581704,0.142101639113308,0.0503436056509221,4,10.1333333333333,29.9
5.5,11.8025602111953,24.1669968279628,0.191476840877872,0.0493752017645637,4,10.1,29.9
5.53333333333333,11.8025648241552,24.1741861286023,0.239711414961234,0.0482345740833617,4,10.0666666666667,29.9
5.56666666666667,11.8025704571368,24.1829629928529,0.28674666975952,0.0470352547982866,4,10.0333333333333,29.9
5.6,11.8025770862062,24.1932883424575,0.332639282518174,0.0458926127586542,4,10,29.9
5.63333333333333,11.8025846890572,24.2051250702195,0.377442273856153,0.0448029913379787,4,9.96666666666667,29.9
5.66666666666667,11.8025932447836,24.218437673032,0.421198399986138,0.0437561261299844,4,9.93333333333333,29.9
5.7,11.8026027336679,24.233191943593,0.463942890756698,0.0427444907705609,4,9.9,29.9
5.73333333333333,11.802613136906,24.2493545958727,0.505692418328303,0.0417495275716042,4,9.86666666666667,29.9
5.76666666666667,11.8026244360163,24.2668924319453,0.546442726970587,0.0407503086422846,4,9.83333333333334,29.9
5.8,11.8026366126486,24.2857721650231,0.586196051893254,0.0397533249226665,4,9.8,29.9
5.83333333333333,11.8026496486466,24.3059606650716,0.624960986127038,0.0387649342337848,4,9.76666666666667,29.9
5.86666666666667,11.8026635260574,24.3274251432836,0.662750430217406,0.0377894440903676,4,9.73333333333333,29.9
5.9,11.8026782271023,24.3501332911546,0.699582349309913,0.0368319190925068,4,9.7,29.9
5.93333333333333,11.802693734432,24.3740538651295,0.735507445461748,0.035925096151835,4,9.66666666666667,29.9
5.96666666666667,11.8027100316513,24.3991576850712,0.770589240842114,0.0350817953803666,4,9.63333333333333,29.9
6,11.8027271031316,24.4254175041779,0.804879138234057,0.0342898973919421,4,9.6,29.9
6.03333333333333,11.8027449336939,24.4528076506909,0.838422402017162,0.0335432637831051,4,9.56666666666667,29.9
6.06666666666667,11.8027635093929,24.4813053450374,0.871389146044677,0.0329667440275152,4,9.53333333333333,29.9
6.1,11.8027828222653,24.5108981447485,0.904220060987421,0.0328309149427444,4,9.5,29.9
6.13333333333333,11.8028028749371,24.5415911040127,0.937504981804693,0.0332849208172715,4,9.46666666666667,29.9
6.16666666666667,11.8028236829943,24.5734103863363,0.971916459997391,0.0344114781926981,4,9.43333333333333,29.9
6.2,11.8028452767811,24.6064059138507,1.00821237451868,0.0362959145212864,4,9.4,29.9
6.23333333333333,11.8028677037708,24.640654842627,1.04727719855702,0.0390648240383418,4,9.36666666666667,29.9
6.26666666666667,11.8028910318612,24.6762664065423,1.09015604835153,0.0428788497945125,4,9.33333333333333,29.9
