Time,x_ego,y_ego,velocity,acceleration,action,x_ped,y_ped
0,11.8,15.9,5,0,1,15.5,29.9
0.0333333333333333,11.8,16.0666076888419,4.99642261439338,-0.0035773856066168,1,15.3694444444444,29.9
0.0666666666666667,11.8,16.2330926531145,4.99264756783477,-0.00377504655861216,1,15.2444444444444,29.9
0.1,11.8,16.399449296924,4.98873130122091,-0.00391626661385835,1,15.125,29.9
0.133333333333333,11.8,16.5656736245138,4.98471426828108,-0.00401703293983147,1,15.0111111111111,29.9
0.166666666666667,11.8,16.7317627870126,4.98062546389497,-0.00408880438611448,1,14.9027777777778,29.9
0.2,11.8,16.8977147575669,4.97648566969706,-0.00413979419790333,1,14.8,29.9
0.233333333333333,11.8,17.063528098494,4.97230978036584,-0.00417588933122204,1,14.7027777777778,29.9
0.266666666666667,11.8,17.2292017943893,4.96810847105553,-0.00420130931030815,1,14.6111111111111,29.9
0.3,11.8,17.3947351325064,4.96388939262275,-0.00421907843277847,1,14.525,29.9
0.333333333333333,11.8,17.5601276170202,4.95965802839236,-0.00423136423039949,1,14.4444444444444,29.9
0.366666666666667,11.8,17.7253789075748,4.95541830829244,-0.00423972009991047,1,14.3694444444444,29.9
0.4,11.8,17.8904887752388,4.95117304903021,-0.00424525926223307,1,14.3,29.9
0.433333333333333,11.8,18.0554570709351,4.94692426953351,-0.00424877949670321,1,14.2361111111111,29.9
0.466666666666667,11.8,18.2202837028143,4.94267341695966,-0.00425085257384605,1,14.1777777777778,29.9
0.5,11.8,18.3849686200364,4.93842152859998,-0.00425188835968093,1,14.125,29.9
0.533333333333333,11.8,18.5495118011469,4.93416934785826,-0.00425218074171951,1,14.0777777777778,29.9
0.566666666666667,11.8,18.7139132457448,4.92991740734792,-0.00425194051033717,1,14.0361111111111,29.9
0.6,11.8,18.8781729685112,4.9256660884612,-0.00425131888672592,1,14,29.9
0.633333333333333,11.7999988119452,19.0422619291933,4.91967175526647,-0.00599433319473253,1,13.9694444444444,29.9
0.666666666666667,11.7999911855107,19.2057761525605,4.89118235332431,-0.0284894019421609,3,13.9444444444444,29.9
0.7,11.7999725899264,19.3678506874464,4.83329137887332,-0.0578909744509879,3,13.925,29.9
0.733333333333333,11.7999404569574,19.5277649888388,4.76156932759674,-0.0717220512765744,3,13.9111111111111,29.9
0.766666666666667,11.7998938736398,19.6851158697112,4.67948726556931,-0.0820820620274336,3,13.9027777777778,29.9
0.8,11.7998332005179,19.8395002980608,4.58358370537336,-0.0959035601959526,3,13.9,29.9
0.833333333333333,11.7997596815401,19.9906596344468,4.48598369799384,-0.0976000073795156,3,13.9,29.9
0.866666666666667,11.7996750969718,20.1385947739349,4.3901344944487,-0.0958492035451437,3,13.9,29.9
0.9,11.799581512637,20.2833353899479,4.29431566726539,-0.0958188271833089,3,13.9,29.9
0.933333333333333,11.7994810898682,20.42488250388,4.19852830673973,-0.0957873605256552,3,13.9,29.9
0.966666666666667,11.7993759276597,20.5632658753841,4.10449509006716,-0.094033216672571,3,13.9,29.9
1,11.7992679547784,20.6985152835906,4.0104938728228,-0.0940012172443598,3,13.9,29.9
1.03333333333333,11.799158847154,20.8306318158742,3.91652462588871,-0.0939692469340954,3,13.9,29.9
1.06666666666667,11.7990499504321,20.9596165667381,3.82258734855617,-0.0939372773325422,3,13.9,29.9
1.1,11.7989422322473,21.0854706343606,3.72868215331279,-0.0939051952433783,3,13.9,29.9
1.13333333333333,11.7988362635452,21.2081951181183,3.63480928661973,-0.0938728666930584,3,13.9,29.9
1.16666666666667,11.7987322346593,21.3277911168248,3.54096909069805,-0.0938401959216786,3,13.9,29.9
1.2,11.7986300221661,21.4442310248797,3.44543980082287,-0.0955292898751847,3,13.9,29.9
1.23333333333333,11.7985292614658,21.5574872384158,3.34994405702562,-0.0954957437972439,3,13.9,29.9
1.26666666666667,11.7984294394208,21.6675608579341,3.25448208892698,-0.095461968098645,3,13.9,29.9
1.3,11.7983300211381,21.7744529831472,3.15905390645869,-0.0954281824682894,3,13.9,29.9
1.33333333333333,11.7982305535149,21.8781647118737,3.06365931416314,-0.0953945922955493,3,13.9,29.9
1.36666666666667,11.7981307449021,21.9786971392619,2.96829796168363,-0.0953613524795047,3,13.9,29.9
1.4,11.7980305109915,22.0760513572368,2.87296941777794,-0.0953285439056883,3,13.9,29.9
1.43333333333333,11.7979299834062,22.1702284540985,2.77767325038701,-0.0952961673909387,3,13.9,29.9
1.46666666666667,11.7978294841719,22.2612295142191,2.68240909541352,-0.0952641549734845,3,13.9,29.9
1.5,11.7977294748528,22.3490556178075,2.58717670114488,-0.0952323942686379,3,13.9,29.9
1.53333333333333,11.7976304925573,22.4337078407218,2.49197594207995,-0.0952007590649298,3,13.9,29.9
1.56666666666667,11.7975330848696,22.5151872543197,2.39680680337139,-0.0951691387085609,3,13.9,29.9
1.6,11.7974377501084,22.5934949253374,2.30166934322246,-0.0951374601489356,3,13.9,29.9
1.63333333333333,11.7973448996191,22.6686320148458,2.20658645348241,-0.0950828897400453,3,13.9,29.9
1.66666666666667,11.797254843406,22.7406061898671,2.11204757938137,-0.0945388741010458,3,13.9,29.9
1.7,11.7971677812299,22.8094527289521,2.01907045838387,-0.0929771209974968,3,13.9,29.9
1.73333333333333,11.7970838196434,22.8752338422839,1.92815940266984,-0.090911055714032,3,13.9,29.9
1.76666666666667,11.7970030061872,22.9380204857959,1.83939802840531,-0.0887613742645321,3,13.9,29.9
1.8,11.7969253794708,22.997855009189,1.7510208773453,-0.0883771510600093,3,13.9,29.9
1.83333333333333,11.7968509613526,23.0547772292665,1.66463904882331,-0.0863818285219873,3,13.8991319444444,29.9
1.86666666666667,11.7967797417782,23.1088518903924,1.58015755543406,-0.0844814933892497,3,13.8965277777778,29.9
1.9,11.7967116796307,23.1601701320713,1.49924252237212,-0.0809150330619393,3,13.8921875,29.9
1.93333333333333,11.796646701711,23.2088494397052,1.42180725783335,-0.0774352645387673,3,13.8861111111111,29.9
1.96666666666667,11.796584699372,23.2550336188622,1.34952412764504,-0.0722831301883124,3,13.8782986111111,29.9
2,11.7965254977198,23.2989220053999,1.28404290965195,-0.0654812179930855,3,13.86875,29.9
2.03333333333333,11.7964688520972,23.3407685712816,1.2269935600933,-0.0570493495586579,3,13.8574652777778,29.9
2.06666666666667,11.7964145007612,23.3808232807628,1.17651121717042,-0.0504823429228738,3,13.8444444444444,29.9
2.1,11.796362192628,23.4193030861147,1.13248064386577,-0.044030573304648,3,13.8296875,29.9
2.13333333333333,11.796311746341,23.4563347907086,1.08961463889507,-0.0428660049707077,3,13.8131944444444,29.9
2.16666666666667,11.7962630558335,23.4919563516117,1.04787072711564,-0.041743911779426,3,13.7949652777778,29.9
2.2,11.7962159842395,23.5262334399641,1.00894602394831,-0.0389247031673263,3,13.775,29.9
2.23333333333333,11.7961703980471,23.5592308227657,0.971088745554956,-0.0378572783933583,3,13.7532986111111,29.9
2.26666666666667,11.7961262008716,23.5909835833041,0.934269387274749,-0.0368193582802072,3,13.7298611111111,29.9
2.3,11.7960832801687,23.6215545548537,0.90018099331668,-0.0340883939580691,3,13.7046875,29.9
2.33333333333333,11.7960415386495,23.6510053749435,0.867050540849275,-0.0331304524674046,3,13.6777777777778,29.9
2.36666666666667,11.7960009257147,23.6793665481443,0.834788634474415,-0.0322619063748603,3,13.6491319444444,29.9
2.4,11.7959613788869,23.7066947804693,0.805060920107975,-0.0297277143664401,3,13.61875,29.9
2.43333333333333,11.7959228517712,23.7330443876264,0.776057952323775,-0.0290029677842005,3,13.5866319444444,29.9
2.46666666666667,11.7958853416392,23.7584386599163,0.747728436005954,-0.028329516317821,3,13.5527777777778,29.9
2.5,11.7958488264453,23.7829280596848,0.721753362793059,-0.0259750732128943,3,13.5171875,29.9
2.53333333333333,11.7958132609064,23.8065907628363,0.698114502652331,-0.0236388601407282,3,13.4798611111111,29.9
2.56666666666667,11.7957786341187,23.8294748970585,0.675028840777172,-0.0230856618751586,3,13.4407986111111,29.9
2.6,11.7957449673475,23.8515984059195,0.652472941652326,-0.0225558991248459,3,13.4,29.9
2.63333333333333,11.7957122803979,23.8729789233332,0.630448688010323,-0.0220242536420037,3,13.3574652777778,29.9
2.66666666666667,11.7956805894621,23.8936341894578,0.608957709423196,-0.0214909785871271,3,13.3131944444444,29.9
2.7,11.795649905974,23.9135819303508,0.587997367705783,-0.0209603417174122,3,13.2671875,29.9
2.73333333333333,11.7956202359157,23.9328397393421,0.567562019949982,-0.0204353477558018,3,13.2194444444444,29.9
2.76666666666667,11.7955915795212,23.9514249929577,0.547643954629381,-0.019918065320601,3,13.1699652777778,29.9
2.8,11.7955639313388,23.9693547921791,0.528234076387152,-0.0194098782422285,3,13.11875,29.9
2.83333333333333,11.7955372805948,23.986645922265,0.50932239713633,-0.0189116792508218,3,13.0657986111111,29.9
2.86666666666667,11.7955116117884,24.0033148261479,0.490898379332744,-0.0184240178035864,3,13.0111111111111,29.9
2.9,11.7954869054456,24.0193775877435,0.472951169151895,-0.0179472101808494,5,12.9546875,29.9
2.93333333333333,11.7954631389602,24.0348499224773,0.455469750958131,-0.0174814181937631,5,12.8965277777778,29.9
2.96666666666667,11.7954402874691,24.0497471648043,0.43844175860462,-0.0170279923535118,5,12.8366319444444,29.9
3,11.7954183248916,24.0640840872878,0.421845351760382,-0.0165964068442372,5,12.775,29.9
3.03333333333333,11.7953972249541,24.0778746772514,0.405657664861457,-0.0161876868989259,5,12.7116319444444,29.9
3.06666666666667,11.7953769617711,24.0911322239651,0.389859589182524,-0.0157980756789323,5,12.6465277777778,29.9
3.1,11.7953575102857,24.1038694291251,0.374434829072605,-0.0154247601099189,5,12.5796875,29.9
3.13333333333333,11.7953388466148,24.1160984899412,0.359369218280009,-0.0150656107925964,5,12.5111111111111,29.9
3.16666666666667,11.7953209482919,24.1278311622382,0.344650223928579,-0.0147189943514295,5,12.4407986111111,29.9
3.2,11.7953037944101,24.1390788088219,0.33026658550542,-0.0143836384231594,5,12.36875,29.9
3.23333333333333,11.7952873656709,24.1498524369594,0.316208049686311,-0.014058535819109,5,12.2949652777778,29.9
3.26666666666667,11.7952716443541,24.1601627278062,0.30246517244808,-0.0137428772382305,5,12.2194444444444,29.9
3.3,11.795256614223,24.1700200598576,0.289029168286207,-0.0134360041618735,5,12.1421875,29.9
3.33333333333333,11.7952422603811,24.1794345279528,0.27589179281951,-0.0131373754666972,5,12.0631944444444,29.9
3.36666666666667,11.7952285690971,24.1884159589545,0.263045249859007,-0.012846542960503,5,11.9824652777778,29.9
3.4,11.7952154945079,24.1970026128336,0.252202502701824,-0.0108427471571824,5,11.9,29.9
3.43333333333333,11.7952029915171,24.2052323368096,0.241626295075173,-0.0105762076266516,5,11.8157986111111,29.9
3.46666666666667,11.7951910819222,24.2130850856581,0.229582238605732,-0.0120440564694411,5,11.7298611111111,29.9
3.5,11.7951797546878,24.2205692512264,0.219510638890844,-0.0100715997148875,5,11.6421875,29.9
3.53333333333333,11.79516896542,24.2277219789465,0.209698616789258,-0.00981202210158605,5,11.5527777777778,29.9
3.56666666666667,11.7951587020621,24.234552187692,0.200161208455586,-0.00953740833367195,5,11.4616319444444,29.9
3.6,11.7951489517035,24.2410691886236,0.190906973968905,-0.00925423448668092,5,11.36875,29.9
3.63333333333333,11.7951396674315,24.2473111703644,0.183658855191277,-0.00724811877762888,5,11.2741319444444,29.9
3.66666666666667,11.7951308352729,24.2532874347464,0.174962835583287,-0.00869601960798985,5,11.1777777777778,29.9
3.7,11.7951224408674,24.2590070597914,0.168259128928305,-0.00670370665498135,5,11.0796875,29.9
3.73333333333333,11.7951143689948,24.2645652706547,0.165272604999809,-0.00298652392849599,5,10.9798611111111,29.9
3.76666666666667,11.7951065045882,24.2700562491057,0.164217167355256,-0.00105543764455343,5,10.8782986111111,29.9
3.8,11.7950987330124,24.2755725818533,0.166783909934606,0.00256674257935033,5,10.775,29.9
3.83333333333333,11.7950909063188,24.281233910534,0.172904560050781,0.00612065011617519,5,10.6699652777778,29.9
3.86666666666667,11.795082608492,24.2873875323034,0.196296604649372,0.023392044598591,4,10.5631944444444,29.9
3.9,11.7950732563722,24.2945198985138,0.231590158371044,0.0352935537216717,4,10.4546875,29.9
3.93333333333333,11.7950624010887,24.3029951463706,0.276843144001841,0.0452529856307972,4,10.3444444444444,29.9
3.96666666666667,11.7950498244342,24.312969447966,0.321517945868144,0.0446748018663023,4,10.2324652777778,29.9
4,11.7950355001986,24.3244217703474,0.365516514164875,0.0439985682967312,4,10.11875,29.9
4.03333333333333,11.7950193891895,24.3373283397697,0.408770425288261,0.0432539111233864,4,10.0032986111111,29.9
4.06666666666667,11.7950014379768,24.3516634992035,0.451232945887014,0.0424625205987524,4,9.88611111111111,29.9
4.1,11.7949815789927,24.3674002805025,0.492866725754665,0.0416337798676514,4,9.7671875,29.9
4.13333333333333,11.7949597324927,24.3845103051119,0.533624137638488,0.0407574118838229,4,9.64652777777778,29.9
4.16666666666667,11.794935809452,24.4029637940984,0.573471101852855,0.0398469642143673,4,9.52413194444444,29.9
4.2,11.7949097147959,24.4227301200419,0.612389763429854,0.0389186615769986,4,9.4,29.9
4.23333333333333,11.7948813515347,24.4437782591871,0.650374091985168,0.037984328555314,4,9.27413194444444,29.9
4.26666666666667,11.794850625574,24.466077119793,0.687426778292567,0.0370526863073993,4,9.14652777777778,29.9
4.3,11.7948174506059,24.4895959832643,0.723575554485609,0.0361487761930418,4,9.0171875,29.9
4.33333333333333,11.7947817519735,24.5143056903526,0.75888004762419,0.0353044931385804,4,8.88611111111111,29.9
4.36666666666667,11.794743471056,24.5401789463114,0.793391327455892,0.0345112798317021,4,8.75329861111111,29.9
4.4,11.7947025695646,24.567189984884,0.827151001896671,0.0337596744407795,4,8.61875,29.9
4.43333333333333,11.7946590326408,24.5953143027622,0.860193541276538,0.0330425393798668,4,8.48246527777778,29.9
4.46666666666667,11.7946128705706,24.6245284604616,0.892548046790377,0.0323545055138394,4,8.34444444444444,29.9
4.5,11.7945641190551,24.6548099189252,0.924236427343734,0.0316883805533568,4,8.2046875,29.9
4.53333333333333,11.7945128388485,24.6861362545847,0.955237406350801,0.0310009790070669,4,8.06319444444444,29.9
4.56666666666667,11.7944591146202,24.7184839826204,0.985519196552732,0.0302817902019309,4,7.91996527777778,29.9
4.6,11.7944030509718,24.7518288572309,1.01506650030138,0.0295473037486461,4,7.775,29.9
4.63333333333333,11.7943447674799,24.7861463037607,1.04387373088802,0.0288072305866431,4,7.62829861111111,29.9
4.66666666666667,11.7942843934025,24.82141169803,1.0719436748291,0.0280699439410772,4,7.47986111111111,29.9
4.7,11.7942220615801,24.8576011025986,1.09934117476767,0.0273974999385702,4,7.3296875,29.9
4.73333333333333,11.7941578964719,24.8946966288978,1.12638191221226,0.0270407374445956,4,7.17777777777778,29.9
4.76666666666667,11.7940919985801,24.9326946101633,1.15358094038434,0.0271990281720735,4,7.02413194444444,29.9
4.8,11.7940244335951,24.9716100172201,1.18152447577882,0.0279435353944797,4,6.86875,29.9
4.83333333333333,11.7939552258355,25.0114775929429,1.21080822718959,0.0292837514107691,4,6.71163194444444,29.9
4.86666666666667,11.7938843534201,25.0523518164167,1.24201862458479,0.0312103973952078,4,6.55277777777778,29.9
4.9,11.7938117443058,25.0943064322567,1.27572535891824,0.0337067343334503,4,6.3921875,29.9
4.93333333333333,11.7937372725374,25.1374341038341,1.31249908410623,0.0367737251879874,4,6.22986111111111,29.9
4.96666666666667,11.7936607537885,25.181846947364,1.35293866265614,0.0404395785499085,4,6.06579861111111,29.9
5,11.7935819409449,25.2276774553237,1.39766229373067,0.0447236310745296,4,5.9,29.9
5.03333333333333,11.7935005217289,25.2750784445231,1.44726687742393,0.0496045836932602,4,5.9,29.9
5.06666666666667,11.7934161179094,25.3242225614167,1.50234592952908,0.0550790521051454,4,5.9,29.9
5.1,11.7933282875809,25.3753004811287,1.56334786070913,0.0610019311800531,4,5.9,29.9
5.13333333333333,11.7932365371538,25.4285132597749,1.63044573664401,0.0670978759348817,4,5.9,29.9
5.16666666666667,11.7931403375995,25.4840632358469,1.70354049487365,0.0730947582296424,4,5.9,29.9
5.2,11.7930391430246,25.5421451401226,1.78229153399194,0.0787510391182835,4,5.9,29.9
5.23333333333333,11.7929324085909,25.6029395721648,1.86619874900237,0.0839072150104356,4,5.9,29.9
5.26666666666667,11.7928196079434,25.6666084013714,1.95464687321809,0.0884481242157216,4,5.9,29.9
5.3,11.7927002496946,25.7332917449942,2.0469534239942,0.0923065507761107,4,5.9,29.9
5.33333333333333,11.7925738917108,25.8031064285529,2.14240946201531,0.0954560380211027,4,5.9,29.9
5.36666666666667,11.7924401518929,25.8761456758132,2.24031288105883,0.0979034190435248,4,5.9,29.9
5.4,11.7922987140384,25.9524798629621,2.34000348770803,0.0996906066491983,4,5.9,29.9
5.43333333333333,11.7921493258827,26.0321594089027,2.4409623913549,0.100958903646867,4,5.9,29.9
5.46666666666667,11.791991788678,26.1152197861967,2.54279109179009,0.10182870043519,4,5.9,29.9
5.5,11.7918259482593,26.2016840907303,2.64514395798751,0.102352866197427,4,5.9,29.9
5.53333333333333,11.7916516898287,26.2915647032429,2.74772282411845,0.102578866130932,4,5.9,29.9
5.56666666666667,11.7914689234485,26.384864807863,2.85027429466889,0.102551470550441,4,5.9,29.9
5.6,11.7912775658712,26.4815798868916,2.95258950699334,0.102315212324451,4,5.9,29.9
5.63333333333333,11.7910775263332,26.5816987570695,3.05446039651142,0.10187088951808,4,5.9,29.9
5.66666666666667,11.7908687005249,26.6852025411231,3.15564985902426,0.101189462512845,4,5.9,29.9
5.7,11.7906509667967,26.7920654768529,3.25598653058361,0.100336671559349,4,5.9,29.9
5.73333333333333,11.790424184506,26.9022570798209,3.35535491067183,0.0993683800882161,4,5.9,29.9
5.76666666666667,11.7901881962596,27.0157436951852,3.45367783295366,0.0983229222818354,4,5.9,29.9
5.8,11.7899428322913,27.1324895648448,3.55090456450911,0.0972267315554465,4,5.9,29.9
5.83333333333333,11.7896879153577,27.2524575654202,3.64700325525388,0.0960986907447663,4,5.9,29.9
5.86666666666667,11.7894232657261,27.3756093427109,3.7419125711102,0.0949093158563272,4,5.9,29.9
5.9,11.7891487087578,27.501903269487,3.83552015520807,0.0936075840978621,4,5.9,29.9
5.93333333333333,11.7888640765697,27.6312950548224,3.92778354607806,0.0922633908699932,4,5.9,29.9
5.96666666666667,11.7885692056388,27.7637399829755,4.01871470226334,0.0909311561852779,4,5.9,29.9
6,11.7882639352552,27.8991942096054,4.10834770703832,0.0896330047749831,4,5.9,29.9
6.03333333333333,11.7879481074448,28.0376149939213,4.19671469495515,0.0883669879168334,4,5.9,29.9
6.06666666666667,11.7876215669195,28.1789607700507,4.28385536185338,0.0871406668982271,4,5.9,29.9
6.1,11.7872841603864,28.3231914308184,4.3698165232495,0.0859611613961198,4,5.9,29.9
6.13333333333333,11.7869357358602,28.4702684565268,4.45464588384214,0.0848293605926429,4,5.9,29.9
6.16666666666667,11.7865761421318,28.620154788995,4.53837912711789,0.0837332432757458,4,5.9,29.9
6.2,11.7862052305989,28.772813409082,4.62095525642842,0.0825761293105298,4,5.9,29.9
6.23333333333333,11.7858228635145,28.9282028400203,4.70222310237285,0.081267845944434,4,5.9,29.9
6.26666666666667,11.7854289071988,29.0862799719011,4.78221981031534,0.0799967079424846,4,5.9,29.9
6.3,11.785023228529,29.2470013488692,4.86085576596127,0.078635955645936,4,5.9,29.9
6.33333333333333,11.7846057021825,29.4103196012554,4.93801897909233,0.0771632131310556,4,5.9,29.9
6.36666666666667,11.7841762094766,29.5761841145605,5.01361760318941,0.0755986240970783,4,5.9,29.9
6.4,11.7837346368139,29.7445420803604,5.08764370453699,0.0740261013475783,4,5.9,29.9
6.43333333333333,11.7832808655892,29.9153433792369,5.16024312890772,0.0725994243707353,4,5.9,29.9
6.46666666666667,11.7828147696347,30.0885420353163,5.23149206633536,0.0712489374276357,4,5.9,29.9
6.5,11.7823362219437,30.2640936233784,5.30142079290521,0.0699287265698549,4,5.9,29.9
6.53333333333333,11.7818450987866,30.4419538496011,5.37001028434175,0.0685894914365353,4,5.9,29.9
6.56666666666667,11.7813412820795,30.6220778352284,5.43723915211556,0.067228867773812,4,5.9,29.9
6.6,11.7808246615376,30.8044194375639,5.50306915612503,0.0658300040094755,4,5.9,29.9
6.63333333333333,11.7802951318642,30.9889324789537,5.56753708880415,0.0644679326791131,4,5.9,29.9
6.66666666666667,11.7797525877702,31.1755726801803,5.63071520745161,0.0631781186474587,4,5.9,29.9
