Time,x_ego,y_ego,velocity,acceleration,action,x_ped,y_ped
0,11.8,15.9,7,0,1,15.5,29.9
0.0333333333333333,11.8,16.1332703793943,6.99615577953002,-0.00384422046998356,1,15.3694444444444,29.9
0.0666666666666667,11.8,16.3664065988113,6.99196947109348,-0.00418630843653833,1,15.2444444444444,29.9
0.1,11.8,16.5994007552791,6.98769498718995,-0.00427448390352669,1,15.125,29.9
0.133333333333333,11.8,16.8322537852842,6.9834976545359,-0.00419733265404787,1,15.0111111111111,29.9
0.166666666666667,11.8,17.0649678802301,6.97935585456763,-0.00414179996826913,1,14.9027777777778,29.9
0.2,11.8,17.2975446186632,6.97525409491249,-0.00410175965514537,1,14.8,29.9
0.233333333333333,11.8,17.5299851399444,6.97118127319767,-0.00407282171482137,1,14.7027777777778,29.9
0.266666666666667,11.8,17.7622902687052,6.96712943294736,-0.00405184025031069,1,14.6111111111111,29.9
0.3,11.8,17.9944606040335,6.96309287213007,-0.00403656081728965,1,14.525,29.9
0.333333333333333,11.8,18.2264965833863,6.95906750439986,-0.00402536773020401,1,14.4444444444444,29.9
0.366666666666667,11.8,18.4583985283897,6.95505040137947,-0.00401710302039238,1,14.3694444444444,29.9
0.4,11.8,18.6901666776599,6.95103946463339,-0.00401093674607722,1,14.3,29.9
0.433333333333333,11.8,18.9218012103233,6.94703319054231,-0.00400627409108711,1,14.2361111111111,29.9
0.466666666666667,11.8,19.1533022628712,6.94303050173604,-0.00400268880626342,1,14.1777777777778,29.9
0.5,11.8,19.3846699412377,6.93903062623031,-0.00399987550573222,1,14.125,29.9
0.533333333333333,11.8,19.6159043294559,6.93503301077307,-0.00399761545723631,1,14.0777777777778,29.9
0.566666666666667,11.80000167436,19.8470054958588,6.93103726013915,-0.00399575063392454,1,14.0361111111111,29.9
0.6,11.8000121591332,20.0779734974889,6.92704310115249,-0.00399415898666078,1,14,29.9
0.633333333333333,11.8000379826791,20.3088083830925,6.92305034938982,-0.00399275176267277,1,13.9694444444444,29.9
0.666666666666667,11.8000856715633,20.5395101950262,6.91905887415691,-0.00399147523290821,1,13.9444444444444,29.9
0.7,11.8001599002172,20.7700789705353,6.91506857901633,-0.00399029514057414,1,13.925,29.9
0.733333333333333,11.8002653705333,21.0005147425628,6.91107938655079,-0.0039891924655393,1,13.9111111111111,29.9
0.766666666666667,11.8004045011222,21.2308171774032,6.90706941045188,-0.00400997609891274,1,13.9027777777778,29.9
0.8,11.8005774754164,21.4606687609656,6.8840300596022,-0.0230393508496798,3,13.9,29.9
0.833333333333333,11.8007830086397,21.6893487462453,6.83677570036321,-0.0472543592389894,3,13.9,29.9
0.866666666666667,11.8010187980917,21.9157041409765,6.74455749787774,-0.0922182024854683,3,13.9,29.9
0.9,11.8012818511893,22.1383514289406,6.61429239014701,-0.13026510773074,3,13.9,29.9
0.933333333333333,11.8015688270627,22.3561376535486,6.45289715258553,-0.161395237561479,3,13.9,29.9
0.966666666666667,11.8018763658369,22.5684005389637,6.28289599291995,-0.170001159665577,3,13.9,29.9
1,11.8022012069147,22.7748815893657,6.10599244833481,-0.176903544585142,3,13.9,29.9
1.03333333333333,11.8025401689157,22.9754662673923,5.92912095899403,-0.176871489340773,3,13.9,29.9
1.06666666666667,11.8028902503284,23.1701556207723,5.75228239919781,-0.176838559796228,3,13.9,29.9
1.1,11.8032485479968,23.3588642521672,5.57028873373004,-0.181993665467764,3,13.9,29.9
1.13333333333333,11.8036121522527,23.5412760805547,5.37448595727946,-0.195802776450585,3,13.9,29.9
1.16666666666667,11.8039783569831,23.7170176653448,5.17008491019579,-0.204401047083669,3,13.9,29.9
1.2,11.8043448304358,23.8858020798684,4.95706420236492,-0.21302070783087,3,13.9,29.9
1.23333333333333,11.8047094812133,24.0473420691437,4.73542436053431,-0.22163984183061,3,13.9,29.9
1.26666666666667,11.8050711898728,24.2014946484621,4.51382031538996,-0.221604045144348,3,13.9,29.9
1.3,11.8054311258654,24.3482610807051,4.29225217627959,-0.221568139110373,3,13.9,29.9
1.33333333333333,11.8057900977923,24.4876417196009,4.07064134241852,-0.22161083386107,3,13.9,29.9
1.36666666666667,11.8061478953541,24.6196339641625,3.84894805464546,-0.22169328777306,3,13.9,29.9
1.4,11.8065033941116,24.7442358888884,3.62721823507497,-0.221729819570486,3,13.9,29.9
1.43333333333333,11.8068547066704,24.8614468426306,3.40548484888491,-0.221733386190064,3,13.9,29.9
1.46666666666667,11.8071993591585,24.9712670808922,3.18377141147789,-0.221713437407021,3,13.9,29.9
1.5,11.8075344771705,25.073697502158,2.9620944866552,-0.221676924822686,3,13.9,29.9
1.53333333333333,11.8078569690008,25.1687394587732,2.74046549670488,-0.221628989950324,3,13.9,29.9
1.56666666666667,11.8081636979026,25.256394621245,2.51889206855703,-0.22157342814785,3,13.9,29.9
1.6,11.8084516450282,25.3366648808231,2.29737906634884,-0.221513002208185,3,13.9,29.9
1.63333333333333,11.8087181399315,25.4095537323277,2.07616461069471,-0.221214455654131,3,13.9,29.9
1.66666666666667,11.8089611209075,25.4750977324654,1.8570143189724,-0.219150291722315,3,13.9,29.9
1.7,11.809179198641,25.5333877479632,1.64101772621367,-0.215996592758722,3,13.9,29.9
1.73333333333333,11.809371528151,25.5845353899748,1.42851570976803,-0.212502016445644,3,13.9,29.9
1.76666666666667,11.8095376989429,25.6286605461696,1.21969174117011,-0.208823968597917,3,13.9,29.9
1.8,11.8096776346684,25.6658876635381,1.01464856821483,-0.205043172955285,3,13.9,29.9
1.83333333333333,11.8097915051772,25.6963461195822,0.813617106156403,-0.201031462058425,3,13.8991319444444,29.9
1.86666666666667,11.8098796543328,25.7201727943083,0.616723913484911,-0.196893192671492,3,13.8965277777778,29.9
1.9,11.8099425173727,25.7375052127269,0.423974614983528,-0.192749298501383,3,13.8921875,29.9
1.93333333333333,11.8099805733927,25.7484834481478,0.235465444431218,-0.18850917055231,3,13.8861111111111,29.9
1.96666666666667,11.8099942997974,25.7532486172987,0.051235704878762,-0.184229739552456,3,13.8782986111111,29.9
2,11.8099890100674,25.7538388570497,0.0475777839822738,-0.00365792089648823,5,13.86875,29.9
2.03333333333333,11.8099694595902,25.7522536083461,0.00127102227562835,-0.0463067617066455,3,13.8574652777778,29.9
2.06666666666667,11.8099694595902,25.7522536083461,0.0021151409619105,0.000844118686282145,5,13.8444444444444,29.9
2.1,11.8099694595902,25.7522536083461,0.00375790584642942,0.00164276488451892,5,13.8296875,29.9
2.13333333333333,11.8099694595902,25.7522536083461,0.00601203766088095,0.00225413181445153,5,13.8131944444444,29.9
2.16666666666667,11.8099694595902,25.7522536083461,0.00861818367317467,0.00260614601229372,5,13.7949652777778,29.9
2.2,11.8099694595902,25.7522536083461,0.0112836836880242,0.00266550001484956,5,13.775,29.9
2.23333333333333,11.8099694595902,25.7522536083461,0.013718211303395,0.0024345276153708,5,13.7532986111111,29.9
2.26666666666667,11.8099694595902,25.7522536083461,0.0156637815107945,0.00194557020739945,5,13.7298611111111,29.9
2.3,11.8099694595902,25.7522536083461,0.0169174833688052,0.0012537018580107,5,13.7046875,29.9
2.33333333333333,11.8099694595902,25.7522536083461,0.0173461441859229,0.000428660817117725,5,13.6777777777778,29.9
2.36666666666667,11.8099694595902,25.7522536083461,0.0168929001248104,-0.000453244061112489,5,13.6491319444444,29.9
2.4,11.8099694595902,25.7522536083461,0.0155762937473547,-0.00131660637745566,5,13.61875,29.9
2.43333333333333,11.8099694595902,25.7522536083461,0.0134830142340276,-0.00209327951332718,5,13.5866319444444,29.9
2.46666666666667,11.8099694595902,25.7522536083461,0.0107557286801266,-0.00272728555390097,5,13.5527777777778,29.9
2.5,11.8099694595902,25.7522536083461,0.0075776245294596,-0.003178104150667,5,13.5171875,29.9
2.53333333333333,11.8099694595902,25.7522536083461,0.00415530671429555,-0.00342231781516405,5,13.4798611111111,29.9
2.56666666666667,11.8099694595902,25.7522536083461,0.000701589861379082,-0.00345371685291646,5,13.4407986111111,29.9
2.6,11.8099694595902,25.7522536083461,0.0025804768983523,0.00187888703697322,5,13.4,29.9
2.63333333333333,11.8099694595902,25.7522536083461,0.0055112874578988,0.0029308105595465,5,13.3574652777778,29.9
2.66666666666667,11.8099694595902,25.7522536083461,0.00794530542997212,0.00243401797207332,5,13.3131944444444,29.9
2.7,11.8099694595902,25.7522536083461,0.00977820976498694,0.00183290433501482,5,13.2671875,29.9
2.73333333333333,11.8099694595902,25.7522536083461,0.0109504382002348,0.00117222843524785,5,13.2194444444444,29.9
2.76666666666667,11.8099694595902,25.7522536083461,0.0114472827664655,0.000496844566230729,5,13.1699652777778,29.9
2.8,11.8099694595902,25.7522536083461,0.0112959183934744,-0.000151364372991122,5,13.11875,29.9
2.83333333333333,11.8099694595902,25.7522536083461,0.0105599148930318,-0.000736003500442556,5,13.0657986111111,29.9
2.86666666666667,11.8099694595902,25.7522536083461,0.00933189054028033,-0.00122802435275152,5,13.0111111111111,29.9
2.9,11.8099694595902,25.7522536083461,0.00772501321131363,-0.00160687732896669,5,12.9546875,29.9
2.93333333333333,11.8099694595902,25.7522536083461,0.00586404765598007,-0.00186096555533356,5,12.8965277777778,29.9
2.96666666666667,11.8099694595902,25.7522536083461,0.0038765931357854,-0.00198745452019467,5,12.8366319444444,29.9
3,11.8099694595902,25.7522536083461,0.00188506452442432,-0.00199152861136109,5,12.775,29.9
3.03333333333333,11.8099694595902,25.7522536083461,1.4671267391784e-07,-0.0018849178117504,5,12.7116319444444,29.9
3.06666666666667,11.8099694595902,25.7522536083461,0.00168602610704312,0.0016858793943692,5,12.6465277777778,29.9
3.1,11.8099694595902,25.7522536083461,0.00310063312520476,0.00141460701816164,5,12.5796875,29.9
3.13333333333333,11.8099694595902,25.7522536083461,0.00419509860669049,0.00109446548148573,5,12.5111111111111,29.9
3.16666666666667,11.8099694595902,25.7522536083461,0.00494399454668795,0.000748895939997454,5,12.4407986111111,29.9
3.2,11.8099694595902,25.7522536083461,0.00534424336188632,0.000400248815198376,5,12.36875,29.9
3.23333333333333,11.8099694595902,25.7522536083461,0.00541280602758338,6.85626656970586e-05,5,12.2949652777778,29.9
3.26666666666667,11.8099694595902,25.7522536083461,0.00518343605612123,-0.000229369971462147,5,12.2194444444444,29.9
3.3,11.8099694595902,25.7522536083461,0.00470280941658138,-0.000480626639539854,5,12.1421875,29.9
3.33333333333333,11.8099694595902,25.7522536083461,0.00402634095013808,-0.000676468466443298,5,12.0631944444444,29.9
3.36666666666667,11.8099694595902,25.7522536083461,0.00321397861416324,-0.000812362335974838,5,11.9824652777778,29.9
3.4,11.8099694595902,25.7522536083461,0.0023262318447916,-0.000887746769371641,5,11.9,29.9
3.43333333333333,11.8099694595902,25.7522536083461,0.00142064379946497,-0.000905588045326629,5,11.8157986111111,29.9
3.46666666666667,11.8099694595902,25.7522536083461,0.000548863700944875,-0.0008717800985201,5,11.7298611111111,29.9
3.5,11.8099694595902,25.7522536083461,0.000245580745020593,-0.000303282955924282,5,11.6421875,29.9
3.53333333333333,11.8099694595902,25.7522536083461,0.000928765963345438,0.000683185218324845,5,11.5527777777778,29.9
3.56666666666667,11.8099694595902,25.7522536083461,0.00147711589171337,0.000548349928367933,5,11.4616319444444,29.9
3.6,11.8099694595902,25.7522536083461,0.00187745551270572,0.000400339620992354,5,11.36875,29.9
3.63333333333333,11.8099694595902,25.7522536083461,0.00212645881893049,0.000249003306224761,5,11.2741319444444,29.9
3.66666666666667,11.8099694595902,25.7522536083461,0.00222960068407299,0.000103141865142504,5,11.1777777777778,29.9
3.7,11.8099694595902,25.7522536083461,0.00219973735915065,-2.9863324922344e-05,5,11.0796875,29.9
3.73333333333333,11.8099694595902,25.7522536083461,0.00205544603082095,-0.000144291328329695,5,10.9798611111111,29.9
3.76666666666667,11.8099694595902,25.7522536083461,0.00181925101181375,-0.000236195019007199,5,10.8782986111111,29.9
3.8,11.8099694595902,25.7522536083461,0.00151585402308106,-0.000303396988732688,5,10.775,29.9
3.83333333333333,11.8099694595902,25.7522536083461,0.00117047027097076,-0.000345383752110305,5,10.6699652777778,29.9
3.86666666666667,11.8099694595902,25.7522536083461,0.000807352340846075,-0.000363117930124683,5,10.5631944444444,29.9
3.9,11.8099694595902,25.7522536083461,0.000448562040572638,-0.000358790300273437,5,10.4546875,29.9
3.93333333333333,11.8099694595902,25.7522536083461,0.000113027846673045,-0.000335534193899593,5,10.3444444444444,29.9
3.96666666666667,11.8099694595902,25.7522536083461,0.000184096043316157,7.10681966431114e-05,5,10.2324652777778,29.9
4,11.8099694595902,25.7522536083461,0.00043177269201257,0.000247676648696413,5,10.11875,29.9
4.03333333333333,11.8099694595902,25.7522536083461,0.000623147824433855,0.000191375132421285,5,10.0032986111111,29.9
4.06666666666667,11.8099694595902,25.7522536083461,0.000755371300291153,0.000132223475857298,5,9.88611111111111,29.9
4.1,11.8099694595902,25.7522536083461,0.000829217780926903,7.38464806357501e-05,5,9.7671875,29.9
4.13333333333333,11.8099694595902,25.7522536083461,0.000848555373922836,1.93375929959325e-05,5,9.64652777777778,29.9
4.16666666666667,11.8099694595902,25.7522536083461,0.000819713079744719,-2.88422941781169e-05,5,9.52413194444444,29.9
4.2,11.8099694595902,25.7522536083461,0.000750796675494657,-6.89164042500619e-05,5,9.4,29.9
4.23333333333333,11.8099694595902,25.7522536083461,0.000650998773837494,-9.97979016571631e-05,5,9.27413194444444,29.9
4.26666666666667,11.8099694595902,25.7522536083461,0.000529942799028457,-0.000121055974809037,5,9.14652777777778,29.9
4.3,11.8099694595902,25.7522536083461,0.000397093172339257,-0.0001328496266892,5,9.0171875,29.9
4.33333333333333,11.8099694595902,25.7522536083461,0.00026125573506425,-0.000135837437275007,5,8.88611111111111,29.9
4.36666666666667,11.8099694595902,25.7522536083461,0.000130183954123418,-0.000131071780940832,5,8.75329861111111,29.9
4.4,11.8099694595902,25.7522536083461,1.02982760079424e-05,-0.000119885678115476,5,8.61875,29.9
4.43333333333333,11.8099694595902,25.7522536083461,9.34814504809877e-05,8.31831744730453e-05,5,8.48246527777778,29.9
4.46666666666667,11.8099694595902,25.7522536083461,0.000177796948205217,8.43154977242289e-05,5,8.34444444444444,29.9
4.5,11.8099694595902,25.7522536083461,0.000240817457751105,6.30205095458886e-05,5,8.2046875,29.9
4.53333333333333,11.8099694595902,25.7522536083461,0.000282125953509188,4.13084957580828e-05,5,8.06319444444444,29.9
4.56666666666667,11.8099694595902,25.7522536083461,0.000302543248325269,2.04172948160809e-05,5,7.91996527777778,29.9
4.6,11.8099694595902,25.7522536083461,0.000303908592703394,1.36534437812473e-06,5,7.775,29.9
4.63333333333333,11.8099694595902,25.7522536083461,0.000288835164624778,-1.50734280786154e-05,5,7.62829861111111,29.9
4.66666666666667,11.8099694595902,25.7522536083461,0.000260457623989597,-2.83775406351816e-05,5,7.47986111111111,29.9
4.7,11.8099694595902,25.7522536083461,0.000123574458613398,-0.000136883165376199,5,7.3296875,29.9
4.73333333333333,11.8099710708656,25.7528851713155,0.0359889614895519,0.0358653870309385,4,7.17777777777778,29.9
4.76666666666667,11.8099763082627,25.7549378361372,0.0870877245540741,0.0510987630645221,4,7.02413194444444,29.9
4.8,11.8099858736287,25.758683151283,0.137502314989486,0.0504145904354118,4,6.86875,29.9
4.83333333333333,11.8099997216257,25.7640936183418,0.186970168567613,0.0494678535781269,4,6.71163194444444,29.9
4.86666666666667,11.8100178108935,25.7711344474703,0.23531061069373,0.0483404421261169,4,6.55277777777778,29.9
4.9,11.8100401170892,25.7797663398299,0.282449365532143,0.0471387548384129,4,6.3921875,29.9
4.93333333333333,11.8100666490867,25.789950079775,0.328441420287377,0.045992054755234,4,6.22986111111111,29.9
4.96666666666667,11.8100974566249,25.801648437056,0.373340497413053,0.0448990771256765,4,6.06579861111111,29.9
5,11.8101326385164,25.814825806959,0.417189853791696,0.0438493563786427,4,5.9,29.9
5.03333333333333,11.8101723781423,25.8294478974688,0.460025451908855,0.0428355981171594,4,5.9,29.9
5.06666666666667,11.8102169519137,25.8454814036388,0.501866784782308,0.0418413328734527,4,5.9,29.9
5.1,11.8102666893466,25.8628931542107,0.542709228104098,0.0408424433217902,4,5.9,29.9
5.13333333333333,11.8103219529698,25.881649862757,0.582554283938671,0.0398450558345725,4,5.9,29.9
5.16666666666667,11.8103831253716,25.901718377923,0.621410043778852,0.0388557598401814,4,5.9,29.9
5.2,11.8104505937452,25.9230658742004,0.659289071123738,0.0378790273448861,4,5.9,29.9
5.23333333333333,11.8105247327044,25.9456599935219,0.696208552825048,0.0369194817013099,4,5.9,29.9
5.26666666666667,11.8106058873385,25.9694693531433,0.732215207369672,0.0360066545446237,4,5.9,29.9
5.3,11.8106943579377,25.9944645697863,0.76737314275163,0.0351579353819581,4,5.9,29.9
5.33333333333333,11.8107903834135,26.0206182307169,0.801734826994408,0.0343616842427784,4,5.9,29.9
5.36666666666667,11.8108941262825,26.0479045426973,0.835350013783547,0.033615186789139,4,5.9,29.9
5.4,11.8110056696745,26.0763022745093,0.868533408409418,0.0331833946258708,4,5.9,29.9
5.43333333333333,11.8111250573098,26.1058120886286,0.902310051416628,0.0337766430072094,4,5.9,29.9
5.46666666666667,11.8112524022575,26.1364803070222,0.938347735643447,0.0360376842268196,4,5.9,29.9
5.5,11.8113880663479,26.1684123556588,0.978412337851733,0.0400646022082859,4,5.9,29.9
5.53333333333333,11.8115325796928,26.2017677284539,1.02395495138125,0.0455426135295218,4,5.9,29.9
5.56666666666667,11.8116867318022,26.2367481420002,1.07607259317631,0.0521176417950506,4,5.9,29.9
5.6,11.8118514188003,26.273587456922,1.13560746932056,0.0595348761442533,4,5.9,29.9
5.63333333333333,11.8120275928158,26.312543280893,1.20312656708483,0.0675190977642697,4,5.9,29.9
5.66666666666667,11.8122162597838,26.3538865195301,1.27887387227901,0.0757473051941766,4,5.9,29.9
5.7,11.8124184864476,26.3978924944344,1.36288045864483,0.0840065863658217,4,5.9,29.9
5.73333333333333,11.8126354155952,26.4448337906034,1.45493708650445,0.0920566278596255,4,5.9,29.9
5.76666666666667,11.8128682750623,26.4949707359613,1.55451544349903,0.0995783569945734,4,5.9,29.9
5.8,11.8131183847337,26.5485423257764,1.66089441878852,0.106378975289498,4,5.9,29.9
5.83333333333333,11.8133871700048,26.6057618998719,1.77326302409768,0.112368605309159,4,5.9,29.9
5.86666666666667,11.8136761696763,26.6668149593833,1.89076899089292,0.117505966795233,4,5.9,29.9
5.9,11.8139870310088,26.7318580058481,2.01250094609764,0.121731955204728,4,5.9,29.9
5.93333333333333,11.8143214749842,26.8010139924587,2.13737052086483,0.124869574767185,4,5.9,29.9
5.96666666666667,11.8146812490623,26.8743701371818,2.26435684800242,0.126986327137594,4,5.9,29.9
6,11.8150680829219,26.9519818527869,2.39257102875174,0.128214180749319,4,5.9,29.9
6.03333333333333,11.8154836356878,27.0338770432453,2.52125107254122,0.128680043789478,4,5.9,29.9
6.06666666666667,11.8159294319527,27.1200603372169,2.64977257749603,0.128521504954809,4,5.9,29.9
6.1,11.8164067510119,27.2105195808932,2.77776611093418,0.127993533438156,4,5.9,29.9
6.13333333333333,11.8169165928258,27.3052332863482,2.90501286177084,0.127246750836658,4,5.9,29.9
6.16666666666667,11.8174597269305,27.4041741428062,3.03138296262458,0.12637010085374,4,5.9,29.9
6.2,11.818036768637,27.5073118414919,3.15682372133895,0.125440758714364,4,5.9,29.9
6.23333333333333,11.8186482643414,27.6146153132383,3.28133732492027,0.124513603581323,4,5.9,29.9
6.26666666666667,11.8192947675595,27.7260534112938,3.40489345053266,0.12355612561239,4,5.9,29.9
6.3,11.8199768888251,27.8415927165683,3.52740736528046,0.122513914747801,4,5.9,29.9
6.33333333333333,11.8206953342132,27.9611975999601,3.64883207208303,0.121424706802568,4,5.9,29.9
6.36666666666667,11.8214509272032,28.0848312522599,3.7691400463123,0.120307974229276,4,5.9,29.9
6.4,11.8222446104397,28.2124560638782,3.88830892396432,0.119168877652018,4,5.9,29.9
6.43333333333333,11.8230774337687,28.3440336805972,4.00631565800578,0.118006734041463,4,5.9,29.9
6.46666666666667,11.8239505342978,28.4795248314789,4.12311737857651,0.116801720570728,4,5.9,29.9
6.5,11.8248651025402,28.6188868513506,4.23854497218806,0.115427593611549,4,5.9,29.9
6.53333333333333,11.8258223467206,28.7620709980036,4.35243649763041,0.113891525442344,4,5.9,29.9
