Time,x_ego,y_ego,velocity,acceleration,action,x_ped,y_ped
0,11.8,8.9,5,0,1,15.5,29.9
0.0333333333333333,11.8000060869133,9.06660768882936,4.99642264116822,-0.00357735883177668,1,15.3694444444444,29.9
0.0666666666666667,11.8000451362106,9.23309265254859,4.99264789095766,-0.00377475021056828,1,15.2444444444444,29.9
0.1,11.8001409864473,9.3994492915341,4.98873253802285,-0.00391535293480505,1,15.125,29.9
0.133333333333333,11.8003097416779,9.56567359905987,4.98471717912251,-0.00401535890034133,1,15.0111111111111,29.9
0.166666666666667,11.8005589953378,9.73176270613138,4.98063061579227,-0.00408656333023405,1,14.9027777777778,29.9
0.2,11.8008892907844,9.89771455856937,4.97649324380632,-0.00413737198595765,1,14.8,29.9
0.233333333333333,11.8012963319482,10.0635276888852,4.97231956537807,-0.00417367842824579,1,14.7027777777778,29.9
0.266666666666667,11.8017729226262,10.2292010546953,4.96811998057483,-0.00419958480324123,1,14.6111111111111,29.9
0.3,11.8023110733001,10.3947339224548,4.96390213177085,-0.00421784880397613,1,14.525,29.9
0.333333333333333,11.8029045101214,10.5601257809174,4.95967157542031,-0.00423055635054315,1,14.4444444444444,29.9
0.366666666666667,11.8035470770956,10.7253762808387,4.95543224679087,-0.00423932862943577,1,14.3694444444444,29.9
0.4,11.8042326291081,10.8904851907625,4.95118700955865,-0.00424523723222947,1,14.3,29.9
0.433333333333333,11.8049555116252,11.0554523638227,4.94693795698617,-0.00424905257247499,1,14.2361111111111,29.9
0.466666666666667,11.8057109613926,11.2202777129332,4.94268662545505,-0.00425133153111545,1,14.1777777777778,29.9
0.5,11.8064954042122,11.3849611922866,4.93843414518164,-0.0042524802734123,1,14.125,29.9
0.533333333333333,11.8073066189967,11.5495027837345,4.93418134620823,-0.00425279897341024,1,14.0777777777778,29.9
0.566666666666667,11.8081437464358,11.7139024870253,4.92992883343924,-0.00425251276899363,1,14.0361111111111,29.9
0.6,11.8090071418447,11.8781603131128,4.92567704100242,-0.00425179243682283,1,14,29.9
0.633333333333333,11.8098980977213,12.0422762798849,4.92142627300174,-0.00425076800067448,1,13.9694444444444,29.9
0.666666666666667,11.8108184840715,12.2062504097347,4.91717673501482,-0.00424953798691785,1,13.9444444444444,29.9
0.7,11.8117703672723,12.3700827284466,4.91292855887044,-0.00424817614437867,1,13.925,29.9
0.733333333333333,11.8127556680236,12.5337732649086,4.9086818223712,-0.0042467364992449,1,13.9111111111111,29.9
0.766666666666667,11.8137759064205,12.6973220512229,4.90443656530865,-0.00424525706255352,1,13.9027777777778,29.9
0.8,11.8148320610912,12.8607291228691,4.90019280283066,-0.00424376247799074,1,13.9,29.9
0.833333333333333,11.8159245451543,13.0239945186879,4.89595053669966,-0.00424226613099954,1,13.9,29.9
0.866666666666667,11.8170532800972,13.1871182805808,4.89170976436034,-0.00424077233931364,1,13.9,29.9
0.9,11.8182178338958,13.3501004529354,4.88747048535575,-0.00423927900459109,1,13.9,29.9
0.933333333333333,11.819417584023,13.5129410818745,4.88323270471857,-0.00423778063718139,1,13.9,29.9
0.966666666666667,11.8206518692343,13.6756402144674,4.87899643345263,-0.0042362712659374,1,13.9,29.9
1,11.8219201040366,13.8381978980415,4.87476168680925,-0.00423474664338475,1,13.9,29.9
1.03333333333333,11.823221843196,14.0006141796942,4.87052848143916,-0.00423320537008909,1,13.9,29.9
1.06666666666667,11.8245567969746,14.1628891060451,4.86629683251419,-0.0042316489249723,1,13.9,29.9
1.1,11.825924808096,14.3250227232136,4.86206675161939,-0.00423008089479548,1,13.9,29.9
1.13333333333333,11.8273258070422,14.4870150769564,4.85783824578901,-0.00422850583037793,1,13.9,29.9
1.16666666666667,11.8287597628635,14.6488662128782,4.85361131766529,-0.00422692812372016,1,13.9,29.9
1.2,11.8302266431706,14.8105761766305,4.84938596649148,-0.00422535117381528,1,13.9,29.9
1.23333333333333,11.8317263910495,14.9721450140354,4.84516218952655,-0.00422377696492848,1,13.9,29.9
1.26666666666667,11.833258920232,15.1335727711087,4.84093998346734,-0.00422220605920653,1,13.9,29.9
1.3,11.8348241246176,15.2948594939916,4.83671934555099,-0.00422063791635363,1,13.9,29.9
1.33333333333333,11.8364218952132,15.4560052288272,4.83250027415288,-0.00421907139810518,1,13.9,29.9
1.36666666666667,11.8380521370368,15.6170100216321,4.82828276885506,-0.00421750529782727,1,13.9,29.9
1.4,11.8397147801225,15.7778739182057,4.82406683009742,-0.00421593875763193,1,13.9,29.9
1.43333333333333,11.841409781635,15.9385969641063,4.81985245860827,-0.00421437148915427,1,13.9,29.9
1.46666666666667,11.8431371192436,16.0991792047003,4.81563965482714,-0.00421280378113131,1,13.9,29.9
1.5,11.8448965222275,16.2595916206457,4.80968451147648,-0.00595514335065683,1,13.9,29.9
1.53333333333333,11.846687436288,16.4197761334583,4.80198729587561,-0.00769721560086989,1,13.9,29.9
1.56666666666667,11.8485095139371,16.579703740549,4.79429228789289,-0.0076950079827256,1,13.9,29.9
1.6,11.8503623471797,16.73934581185,4.7848775592344,-0.00941472865848869,1,13.9,29.9
1.63333333333333,11.8522451929712,16.8986450271619,4.77374350276282,-0.0111340564715787,1,13.9,29.9
1.66666666666667,11.8541566600117,17.0574859527699,4.75740276448969,-0.0163407382731258,1,13.9,29.9
1.7,11.8560943876821,17.2156667165113,4.73415607907512,-0.0232466854145734,3,13.9,29.9
1.73333333333333,11.8580564538758,17.3730436206424,4.70919312379311,-0.0249629552820076,3,13.9,29.9
1.76666666666667,11.8600413855366,17.5295304119788,4.68077102830334,-0.0284220954897725,3,13.9,29.9
1.8,11.862047298317,17.6850118121714,4.64889097886553,-0.0318800494378086,3,13.9,29.9
1.83333333333333,11.8640722012919,17.8393729474085,4.61357597912482,-0.0353149997407121,3,13.8991319444444,29.9
1.86666666666667,11.8661139980978,17.9924989855701,4.57480544072174,-0.0387705384030825,3,13.8965277777778,29.9
1.9,11.8681708116084,18.1443034738646,4.53430268767283,-0.0405027530489104,3,13.8921875,29.9
1.93333333333333,11.870241345833,18.2947577609403,4.49381257932726,-0.0404901083455629,3,13.8861111111111,29.9
1.96666666666667,11.8723239330408,18.4438048843991,4.44989147375778,-0.0439211055694813,3,13.8782986111111,29.9
2,11.8744161895727,18.5913301453017,4.40251848767505,-0.0473729860827357,3,13.86875,29.9
2.03333333333333,11.876515318348,18.7371898147056,4.34997250852524,-0.0525459791498104,3,13.8574652777778,29.9
2.06666666666667,11.8786184430349,18.8812402046891,4.29397696150825,-0.0559955470169875,3,13.8444444444444,29.9
2.1,11.880723672851,19.0234241345153,4.23799907073317,-0.055977890775079,3,13.8296875,29.9
2.13333333333333,11.8828297955798,19.1637422185811,4.18203952454363,-0.0559595461895439,3,13.8131944444444,29.9
2.16666666666667,11.8849347315166,19.3021663975955,4.12437659507221,-0.057662929471415,3,13.7949652777778,29.9
2.2,11.8870339357115,19.4386108904763,4.06326690682991,-0.061109688242305,3,13.775,29.9
2.23333333333333,11.8891219500248,19.572903475671,3.99526713286697,-0.0679997739629363,3,13.7532986111111,29.9
2.26666666666667,11.8911927715945,19.7048142053805,3.92035685692628,-0.074910275940689,3,13.7298611111111,29.9
2.3,11.8932395467073,19.8341709700622,3.84202549922164,-0.0783313577046454,3,13.7046875,29.9
2.33333333333333,11.8952555547422,19.9609172580286,3.76371864420803,-0.0783068550136075,3,13.6777777777778,29.9
2.36666666666667,11.8972342880414,20.0850249344951,3.68369329481767,-0.0800253493903562,3,13.6491319444444,29.9
2.4,11.8991707760054,20.2064658725856,3.60369425742681,-0.0799990373908654,3,13.61875,29.9
2.43333333333333,11.901060652693,20.3252123216879,3.52199995920268,-0.0816942982241224,3,13.5866319444444,29.9
2.46666666666667,11.9029003228888,20.441150057847,3.43514499379508,-0.0868549654076061,3,13.5527777777778,29.9
2.5,11.9046878167942,20.5541357906019,3.34485251254275,-0.0902924812523236,3,13.5171875,29.9
2.53333333333333,11.9064230806202,20.6640549377013,3.25112345493478,-0.0937290576079786,3,13.4798611111111,29.9
2.56666666666667,11.9081070383641,20.7707932963838,3.15398056469907,-0.0971428902357054,3,13.4407986111111,29.9
2.6,11.9097423527969,20.8743231501074,3.05859118790154,-0.0953893767975345,3,13.4,29.9
2.63333333333333,11.9113325850773,20.9746741996967,2.96323348933257,-0.0953576985689635,3,13.3574652777778,29.9
2.66666666666667,11.9128805906514,21.0718474595304,2.86790768915042,-0.0953258001821533,3,13.3131944444444,29.9
2.7,11.9143886593506,21.1658439579297,2.77261389711567,-0.0952937920347483,3,13.2671875,29.9
2.73333333333333,11.9158583165437,21.2566647371785,2.6773521426977,-0.0952617544179697,3,13.2194444444444,29.9
2.76666666666667,11.917290208268,21.3443108532367,2.58212239692629,-0.0952297457714115,3,13.1699652777778,29.9
2.8,11.9186840729293,21.428783374838,2.48692458932394,-0.0951978076023483,3,13.11875,29.9
2.83333333333333,11.9200387996404,21.5100833817562,2.39175862211053,-0.0951659672134135,3,13.0657986111111,29.9
2.86666666666667,11.9213525827479,21.5882119619132,2.29662438354059,-0.0951342385699339,3,13.0111111111111,29.9
2.9,11.9226231646115,21.6631703241689,2.20154910002074,-0.0950752835198529,3,12.9546875,29.9
2.93333333333333,11.9238477683568,21.7349383351045,2.10535417725216,-0.0961949227685759,3,12.8965277777778,29.9
2.96666666666667,11.9250245563989,21.8035541619396,2.01252800448622,-0.0928261727659434,3,12.8366319444444,29.9
3,11.926153214203,21.8691390158562,1.92350390954834,-0.0890240949378842,3,12.775,29.9
3.03333333333333,11.9272330375484,21.9317637436349,1.83489067429141,-0.0886132352569222,3,12.7116319444444,29.9
3.06666666666667,11.9282637729244,21.9914987630313,1.75008408551129,-0.0848065887801221,3,12.6465277777778,29.9
3.1,11.929245587279,22.0484117417436,1.66552054790551,-0.0845635376057836,3,12.5796875,29.9
3.13333333333333,11.9301785664978,22.1025376626494,1.58282460013035,-0.0826959477751594,3,12.5111111111111,29.9
3.16666666666667,11.9310640178836,22.1539665475084,1.50366218135572,-0.0791624187746283,3,12.4407986111111,29.9
3.2,11.9319030395175,22.2027574048077,1.4245060748821,-0.079156106473617,3,12.36875,29.9
3.23333333333333,11.9326964297656,22.2489381226597,1.34702451814195,-0.0774815567401572,3,12.2949652777778,29.9
3.26666666666667,11.9334455236672,22.2925639071266,1.27117816954028,-0.0758463486016669,3,12.2194444444444,29.9
3.3,11.9341516664775,22.3336882171067,1.19690455100761,-0.07427361853267,3,12.1421875,29.9
3.33333333333333,11.9348161585329,22.3723626335677,1.12415778913359,-0.0727467618740203,3,12.0631944444444,29.9
3.36666666666667,11.9354402323235,22.4086377456332,1.05293165147172,-0.0712261376618675,3,11.9824652777778,29.9
3.4,11.9360250613523,22.4425651010458,0.983283336567785,-0.0696483149039375,3,11.9,29.9
3.43333333333333,11.9365717667511,22.4741982305679,0.915265975329352,-0.0680173612384332,3,11.8157986111111,29.9
3.46666666666667,11.9370818656914,22.5036206759355,0.850619126088693,-0.064646849240659,3,11.7298611111111,29.9
3.5,11.9375563217462,22.5308861456994,0.785809878765668,-0.0648092473230245,3,11.6421875,29.9
3.53333333333333,11.9379959764173,22.556044845113,0.724180304470272,-0.0616295742953957,3,11.5527777777778,29.9
3.56666666666667,11.9384015661359,22.5791439421094,0.662205130359107,-0.0619751741111653,3,11.4616319444444,29.9
3.6,11.9387737518383,22.6002285898948,0.603298994167386,-0.0589061361917212,3,11.36875,29.9
3.63333333333333,11.9391136247276,22.6193727414899,0.54576189831161,-0.0575370958557758,3,11.2741319444444,29.9
3.66666666666667,11.939421340585,22.6365935475547,0.487883526127658,-0.0578783721839526,3,11.1777777777778,29.9
3.7,11.9396970462039,22.6519084643834,0.4313922668368,-0.0564912592908576,3,11.0796875,29.9
3.73333333333333,11.9399413413057,22.6653634605012,0.376264007441399,-0.0551282593954012,3,10.9798611111111,29.9
3.76666666666667,11.9401548026041,22.6770030523981,0.322443108710036,-0.0538208987313632,3,10.8782986111111,29.9
3.8,11.9403375190582,22.6868412412536,0.268156750370307,-0.054286358339729,3,10.775,29.9
3.83333333333333,11.9404900290921,22.6949192175765,0.216807427843235,-0.0513493225270713,3,10.6699652777778,29.9
3.86666666666667,11.9406133327124,22.7013058741973,0.166675332757428,-0.0501320950858068,3,10.5631944444444,29.9
3.9,11.9407075483852,22.7060146784127,0.116137980860716,-0.0505373518967129,3,10.4546875,29.9
3.93333333333333,11.9407737940804,22.7091196296671,0.0704387501152598,-0.0456992307454558,3,10.3444444444444,29.9
3.96666666666667,11.9408136995397,22.7107250753081,0.0261595618280115,-0.0442791882872484,3,10.2324652777778,29.9
4,11.9408297813063,22.7109886746548,0.00195571562569263,-0.0242038462023189,3,10.11875,29.9
4.03333333333333,11.9408385395001,22.71092787319,0.0019598993589514,4.18373325876365e-06,5,10.0032986111111,29.9
4.06666666666667,11.9408452348248,22.710867105198,0.00105541456548263,-0.000904484793468766,5,9.88611111111111,29.9
4.1,11.9408452348248,22.710867105198,0.00158525974583365,0.00052984518035102,5,9.7671875,29.9
4.13333333333333,11.9408452348248,22.710867105198,0.00222099703452709,0.000635737288693436,5,9.64652777777778,29.9
4.16666666666667,11.9408452348248,22.710867105198,0.00289901382338845,0.000678016788861363,5,9.52413194444444,29.9
4.2,11.9408452348248,22.710867105198,0.00354976512974004,0.000650751306351591,5,9.4,29.9
4.23333333333333,11.9408452348248,22.710867105198,0.00410621591316293,0.000556450783422891,5,9.27413194444444,29.9
4.26666666666667,11.9408452348248,22.710867105198,0.00451081434784288,0.000404598434679949,5,9.14652777777778,29.9
4.3,11.9408452348248,22.710867105198,0.00472062453960142,0.000209810191758539,5,9.0171875,29.9
4.33333333333333,11.9408452348248,22.710867105198,0.00471045579267229,-1.01687469291276e-05,5,8.88611111111111,29.9
4.36666666666667,11.9408452348248,22.710867105198,0.00447401253238826,-0.000236443260284031,5,8.75329861111111,29.9
4.4,11.9408452348248,22.710867105198,0.00402324402517321,-0.000450768507215056,5,8.61875,29.9
4.43333333333333,11.9408452348248,22.710867105198,0.00338618978874726,-0.000637054236425944,5,8.48246527777778,29.9
4.46666666666667,11.9408452348248,22.710867105198,0.00260369254642816,-0.0007824972423191,5,8.34444444444444,29.9
4.5,11.9408452348248,22.710867105198,0.0017253866028464,-0.000878305943581765,5,8.2046875,29.9
4.53333333333333,11.9408452348248,22.710867105198,0.00090394048110453,-0.000821446121741866,5,8.06319444444444,29.9
4.56666666666667,11.9408489845133,22.7110977917157,0.00928415883059991,0.00838021834949538,5,7.91996527777778,29.9
4.6,11.9408571517662,22.711600260748,0.0208540372249737,0.0115698783943738,5,7.775,29.9
4.63333333333333,11.9408738918429,22.7126300663206,0.0409142561978917,0.020060218972918,4,7.62829861111111,29.9
4.66666666666667,11.9409047029395,22.7145252222598,0.0727580484994197,0.0318437923015281,4,7.47986111111111,29.9
4.7,11.9409540585361,22.7175603163328,0.10928523062321,0.0365271821237902,4,7.3296875,29.9
4.73333333333333,11.9410258697457,22.7219746979589,0.155487163981211,0.0462019333580013,4,7.17777777777778,29.9
4.76666666666667,11.9411234975499,22.7279725128746,0.204265258471189,0.0487780944899777,4,7.02413194444444,29.9
4.8,11.9412474357747,22.7355783816085,0.251958875025022,0.0476936165538327,4,6.86875,29.9
4.83333333333333,11.9413972524789,22.7447550299787,0.298530123971367,0.0465712489463456,4,6.71163194444444,29.9
4.86666666666667,11.9415726155288,22.7554657109646,0.344022327068123,0.0454922030967559,4,6.55277777777778,29.9
4.9,11.9417732997643,22.7676750779124,0.388473323167184,0.0444509960990606,4,6.3921875,29.9
4.93333333333333,11.9419991715941,22.7813489452787,0.431914232188099,0.0434409090209152,4,6.22986111111111,29.9
4.96666666666667,11.9422501521277,22.796454095672,0.474370206339023,0.0424559741509236,4,6.06579861111111,29.9
5,11.942526222646,22.812957847544,0.515844033199946,0.0414738268609229,4,5.9,29.9
5.03333333333333,11.942827408681,22.8308273387688,0.556327764160497,0.0404837309605512,4,5.9,29.9
5.06666666666667,11.9431537647305,22.8500295791076,0.595822028925566,0.0394942647650693,4,5.9,29.9
5.1,11.9435053590871,22.8705317108621,0.634334338792992,0.0385123098674258,4,5.9,29.9
5.13333333333333,11.9438822551026,22.892301198543,0.671877023420347,0.0375426846273551,4,5.9,29.9
5.16666666666667,11.9442844909856,22.915306010571,0.708472132451963,0.0365951090316159,4,5.9,29.9
5.2,11.9447120697791,22.9395154309305,0.744178061856445,0.0357059294044825,4,5.9,29.9
5.23333333333333,11.9451649502538,22.9649008469136,0.779055704842459,0.0348776429860134,4,5.9,29.9
5.26666666666667,11.9456430230083,22.9914354676972,0.813153945351854,0.0340982405093956,4,5.9,29.9
5.3,11.9461460893892,23.0190939821172,0.846512732505878,0.0333587871540234,4,5.9,29.9
5.33333333333333,11.9466738561411,23.0478528792377,0.879243157934445,0.032730425428567,4,5.9,29.9
5.36666666666667,11.9472260919653,23.0777002520704,0.912008568879348,0.0327654109449035,4,5.9,29.9
5.4,11.9478029339805,23.1086569121747,0.946061089334343,0.0340525204549947,4,5.9,29.9
5.43333333333333,11.9484049761903,23.1407918034982,0.982998344760244,0.0369372554259011,4,5.9,29.9
5.46666666666667,11.9490333987536,23.174228093634,1.02440236429505,0.041404019534805,4,5.9,29.9
5.5,11.9496900984505,23.209136896037,1.07154725048643,0.0471448861913841,4,5.9,29.9
5.53333333333333,11.9503776175215,23.2457263087842,1.12539292637988,0.0538456758934429,4,5.9,29.9
5.56666666666667,11.9510990606961,23.2842321962086,1.1866495645529,0.0612566381730226,4,5.9,29.9
5.6,11.9518580237687,23.3249094996624,1.2557340498241,0.0690844852712034,4,5.9,29.9
5.63333333333333,11.9526584875634,23.3680214877537,1.33275201461599,0.0770179647918889,4,5.9,29.9
5.66666666666667,11.9535047523882,23.4138316862441,1.41761975123278,0.0848677366167849,4,5.9,29.9
5.7,11.9544013889822,23.4625973704091,1.51003942665848,0.092419675425703,4,5.9,29.9
5.73333333333333,11.9553531528613,23.5145618677615,1.60947350984044,0.0994340831819569,4,5.9,29.9
5.76666666666667,11.9563648909969,23.5699478514411,1.71524767162209,0.10577416178165,4,5.9,29.9
5.8,11.9574414860925,23.6289547122594,1.82664263733241,0.111394965710321,4,5.9,29.9
5.83333333333333,11.9585877866741,23.6917572196737,1.94289221123896,0.116249573906556,4,5.9,29.9
5.86666666666667,11.9598084615268,23.7585019357146,2.06304982134015,0.120157610101184,4,5.9,29.9
5.9,11.9611078006828,23.8293025162122,2.18613864169599,0.123088820355842,4,5.9,29.9
5.93333333333333,11.9624896096008,23.90424195687,2.31129875388661,0.125160112190623,4,5.9,29.9
5.96666666666667,11.9639571334674,23.983377156881,2.43784079996317,0.126542046076557,4,5.9,29.9
6,11.9655130349998,24.066746015426,2.56531172467848,0.127470924715315,4,5.9,29.9
6.03333333333333,11.9671593737934,24.154374598566,2.69345259540008,0.128140870721595,4,5.9,29.9
6.06666666666667,11.9688975910207,24.2462836866291,2.82218845541979,0.128735860019708,4,5.9,29.9
6.1,11.9707286020022,24.3424921698917,2.95145831585514,0.129269860435356,4,5.9,29.9
6.13333333333333,11.9726529134867,24.4430163168573,3.08116316449473,0.129704848639589,4,5.9,29.9
6.16666666666667,11.9746707578045,24.5478681460212,3.21114411719748,0.12998095270275,4,5.9,29.9
6.2,11.9767822226372,24.6570533905594,3.3411873928408,0.130043275643322,4,5.9,29.9
6.23333333333333,11.9789873675656,24.7705699648911,3.47103024996541,0.129842857124606,4,5.9,29.9
6.26666666666667,11.9812862816241,24.8884053361319,3.60031431211135,0.129284062145944,4,5.9,29.9
6.3,11.9836791124524,25.0105349719723,3.72869290529458,0.128378593183231,4,5.9,29.9
6.33333333333333,11.9861660975333,25.136923482605,3.85586367135627,0.127170766061681,4,5.9,29.9
6.36666666666667,11.9887480316926,25.2675263736504,3.98158499811605,0.125721326759784,4,5.9,29.9
6.4,11.9914274394807,25.4022921183459,4.10567585859726,0.124090860481213,4,5.9,29.9
6.43333333333333,11.9942067414712,25.541163465048,4.2279501280383,0.122274269441039,4,5.9,29.9
6.46666666666667,11.9970875823589,25.6840747075224,4.34808408875232,0.120133960714019,4,5.9,29.9
6.5,12.0000707720264,25.8309487927362,4.46574769673033,0.117663607978013,4,5.9,29.9
6.53333333333333,12.0031563955825,25.9816992584124,4.58071729852865,0.114969601798316,4,5.9,29.9
6.56666666666667,12.0063440072084,26.1362343269927,4.69289301296013,0.112175714431481,4,5.9,29.9
