Time,x_ego,y_ego,velocity,acceleration,action,x_ped,y_ped
0,11.8,8.9,5,0,1,15.5,29.9
0.0333333333333333,11.8,9.06660768884189,4.99642261439338,-0.0035773856066168,1,15.4972222222222,29.9
0.0666666666666667,11.8,9.23309265311448,4.99264756783477,-0.00377504655861216,1,15.4888888888889,29.9
0.1,11.8,9.39944929692399,4.98873130122091,-0.00391626661385835,1,15.475,29.9
0.133333333333333,11.8,9.56567362451385,4.98471426828108,-0.00401703293983147,1,15.4555555555556,29.9
0.166666666666667,11.8000012323479,9.73176278701209,4.98062546499629,-0.00408880328479189,1,15.4305555555556,29.9
0.2,11.8000091395693,9.89771475754368,4.97648568299758,-0.00413978199871146,1,15.4,29.9
0.233333333333333,11.8000284269027,10.0635280982749,4.97230982980064,-0.00417585319693892,1,15.3666666666667,29.9
0.266666666666667,11.8000618072436,10.2292017933763,4.96810858305386,-0.00420124674677513,1,15.3333333333333,29.9
0.3,11.8001103435323,10.3947351293579,4.96388958477538,-0.0042189982784846,1,15.3,29.9
0.333333333333333,11.80017387036,10.5601276094248,4.95965830403538,-0.0042312807400009,1,15.2666666666667,29.9
0.366666666666667,11.8002514064298,10.7253788922009,4.95541865752592,-0.00423964650946029,1,15.2333333333333,29.9
0.4,11.8003415048651,10.8904887478657,4.95117345346212,-0.00424520406379791,1,15.2,29.9
0.433333333333333,11.8004425207669,11.0554570267112,4.94692470771542,-0.00424874574669687,1,15.1666666666667,29.9
0.466666666666667,11.8005527992256,11.2202836365635,4.94267386862584,-0.0042508390895879,1,15.1333333333333,29.9
0.5,11.8006708000355,11.3849685265408,4.93842197713315,-0.00425189149268412,1,15.1,29.9
0.533333333333333,11.8007951785122,11.549511675359,4.93416978123672,-0.00425219589643522,1,15.0666666666667,29.9
0.566666666666667,11.8009248380429,11.7139130829048,4.92991781811099,-0.00425196312573028,1,15.0333333333333,29.9
0.6,11.8010589630752,11.8781727641696,4.92566647316975,-0.00425134494123558,1,15,29.9
0.633333333333333,11.8011970346093,12.0422907448876,4.92141602260115,-0.0042504505685983,1,14.9666666666667,29.9
0.666666666666667,11.8013388262244,12.206267058409,4.91716666400942,-0.00424935859172759,1,14.9333333333333,29.9
0.7,11.8014843781085,12.3701017434683,4.91291853849347,-0.00424812551595455,1,14.9,29.9
0.733333333333333,11.8016339489904,12.533794842602,4.90867174656075,-0.0042467919327196,1,14.8666666666667,29.9
0.766666666666667,11.8017879499303,12.6973464010355,4.90442635959595,-0.00424538696479626,1,14.8333333333333,29.9
0.8,11.8019468679328,12.860756465909,4.90018242811282,-0.00424393148313307,1,14.8,29.9
0.833333333333333,11.8021111898567,13.0240250857433,4.89593998767411,-0.00424244043870647,1,14.7666666666667,29.9
0.866666666666667,11.8022813372958,13.1871523100744,4.891699063132,-0.004240924542116,1,14.7333333333333,29.9
0.9,11.8024576209319,13.3501381892,4.88745967167795,-0.00423939145405061,1,14.7,29.9
0.933333333333333,11.8026402189358,13.5129827739993,4.88322182506323,-0.0042378466147186,1,14.6666666666667,29.9
0.966666666666667,11.8028291793403,13.6756861157969,4.87898553123949,-0.00423629382373658,1,14.6333333333333,29.9
1,11.8030244420684,13.8382482662521,4.87475079557505,-0.00423473566443899,1,14.6,29.9
1.03333333333333,11.8032258733691,14.0006692772661,4.87051762173607,-0.0042331738389807,1,14.5666666666667,29.9
1.06666666666667,11.8034333043034,14.1629492009004,4.86628601228909,-0.00423160944698431,1,14.5333333333333,29.9
1.1,11.8036465656378,14.3250880893091,4.86205596907587,-0.00423004321322118,1,14.5,29.9
1.13333333333333,11.803865513639,14.4870859946857,4.85782749341837,-0.00422847565749418,1,14.4666666666667,29.9
1.16666666666667,11.8040900441405,14.6489429692246,4.85360058621557,-0.00422690720280539,1,14.4333333333333,29.9
1.2,11.8043200951369,14.8106590650988,4.84937524798716,-0.00422533822840876,1,14.4,29.9
1.23333333333333,11.8045556404241,14.9722343344498,4.84515147890386,-0.00422376908329625,1,14.3666666666667,29.9
1.26666666666667,11.8047966780639,15.1336688293873,4.84092927882542,-0.00422220007844754,1,14.3333333333333,29.9
1.3,11.8050432176302,15.2949626019947,4.83670864735248,-0.00422063147293361,1,14.3,29.9
1.33333333333333,11.8052952694527,15.4561157043353,4.83248958388908,-0.00421906346340251,1,14.2666666666667,29.9
1.36666666666667,11.8055528377852,15.6171281884565,4.82827208770775,-0.00421749618132861,1,14.2333333333333,29.9
1.4,11.8058159183777,15.7780001063913,4.82405615800888,-0.00421592969887463,1,14.2,29.9
1.43333333333333,11.8060844997205,15.9387315101558,4.81984179396696,-0.00421436404191766,1,14.1666666666667,29.9
1.46666666666667,11.8063585664714,16.0993224517446,4.8156289947597,-0.00421279920725937,1,14.1333333333333,29.9
1.5,11.8066381033771,16.2597729831253,4.81141775957951,-0.0042112351801844,1,14.1,29.9
1.53333333333333,11.8069230982744,16.4200831562346,4.80720808763084,-0.00420967194867572,1,14.0666666666667,29.9
1.56666666666667,11.80721354335,16.5802530229758,4.80299997811908,-0.00420810951176165,1,14.0333333333333,29.9
1.6,11.8075094345197,16.7402826352199,4.79879343023773,-0.00420654788134378,1,14,29.9
1.63333333333333,11.807810769376,16.9001720448082,4.79458844315904,-0.00420498707869132,1,13.9666666666667,29.9
1.66666666666667,11.8081175445025,17.0599213035564,4.79038501603124,-0.00420342712780108,1,13.9333333333333,29.9
1.7,11.8084297530239,17.2195304632586,4.78618314798291,-0.004201868048332,1,13.9,29.9
1.73333333333333,11.808747383078,17.3789995756899,4.78198283813264,-0.0042003098502672,1,13.8666666666667,29.9
1.76666666666667,11.8090704175581,17.5383286926076,4.77778408560096,-0.00419875253167845,1,13.8333333333333,29.9
1.8,11.8093988350902,17.6975178657496,4.77358688952112,-0.00419719607984348,1,13.8,29.9
1.83333333333333,11.8097326118903,17.8565671468317,4.76939124904598,-0.00419564047513532,1,13.7666666666667,29.9
1.86666666666667,11.8100717239668,18.0154765875442,4.76519716334966,-0.0041940856963274,1,13.7333333333333,29.9
1.9,11.8104161491112,18.1742462395478,4.76100463162387,-0.00419253172579204,1,13.7,29.9
1.93333333333333,11.8107657613871,18.3328180230517,4.75332582936319,-0.00767880226067863,1,13.6666666666667,29.9
1.96666666666667,11.8111199475952,18.4908744572234,4.73008469900456,-0.0232411303586257,3,13.6333333333333,29.9
2,11.8114777926812,18.6479546068982,4.69474985645812,-0.0353348425464421,3,13.6,29.9
2.03333333333333,11.8118388258934,18.8038570399051,4.6594226460041,-0.0353272104540157,3,13.5666666666667,29.9
2.06666666666667,11.8122030405161,18.9586394417325,4.62754883253127,-0.0318738134728287,3,13.5333333333333,29.9
2.1,11.8125702368009,19.1122730602075,4.59049662164178,-0.0370522108894953,3,13.5,29.9
2.13333333333333,11.8129399056742,19.264585302857,4.54826736464371,-0.0422292569980653,3,13.4666666666667,29.9
2.16666666666667,11.8133113308423,19.4153171539472,4.49567440934217,-0.0525929553015461,3,13.4333333333333,29.9
2.2,11.8136835801222,19.5641231935878,4.43272012220484,-0.0629542871373321,3,13.4,29.9
2.23333333333333,11.8140558625766,19.7107445576183,4.36459538564241,-0.0681247365624262,3,13.3666666666667,29.9
2.26666666666667,11.8144277245198,19.8550954037442,4.29649055588177,-0.0681048297606415,3,13.3333333333333,29.9
2.3,11.8147988177484,19.9971473517237,4.22666300660985,-0.0698275492719214,3,13.3,29.9
2.33333333333333,11.8151687225797,20.1368433614194,4.15513566192172,-0.0715273446881284,3,13.2666666666667,29.9
2.36666666666667,11.8155370169781,20.2741267923715,4.08190945283781,-0.0732262090839084,3,13.2333333333333,29.9
2.4,11.815903279578,20.4089406717736,4.00696338610099,-0.0749460667368229,3,13.2,29.9
2.43333333333333,11.8162671609496,20.5412567564211,3.93204211356393,-0.074921272537058,3,13.1666666666667,29.9
2.46666666666667,11.8166283891724,20.6710758885176,3.85714608240636,-0.0748960311575648,3,13.1333333333333,29.9
2.5,11.8169866361686,20.7983702201519,3.7805535041456,-0.0765925782607599,3,13.1,29.9
2.53333333333333,11.8173415154158,20.9230832134979,3.70226487622911,-0.0782886279164892,3,13.0666666666667,29.9
2.56666666666667,11.8176926464265,21.0451579819115,3.62225893460003,-0.080005941629087,3,13.0333333333333,29.9
2.6,11.8180395084118,21.1644798855188,3.53709197505877,-0.085166959541255,3,13,29.9
2.63333333333333,11.8183814320182,21.2808769038288,3.44676499179091,-0.0903269832678646,3,12.9666666666667,29.9
2.66666666666667,11.8187176596813,21.3941483484023,3.34955700741072,-0.0972079843801859,3,12.9333333333333,29.9
2.7,11.8190475591785,21.5041509804508,3.25063588554345,-0.0989211218672672,3,12.9,29.9
2.73333333333333,11.8193707741487,21.6108567751319,3.15174652448939,-0.0988893610540638,3,12.8666666666667,29.9
2.76666666666667,11.8196870111767,21.7142668002501,3.0528894993436,-0.0988570251457896,3,12.8333333333333,29.9
2.8,11.8199959712305,21.8143821406626,2.95406517681923,-0.0988243225243726,3,12.8,29.9
2.83333333333333,11.8202973560178,21.9112038919716,2.85527378372856,-0.0987913930906661,3,12.7666666666667,29.9
2.86666666666667,11.8205908741161,22.0047331559988,2.75651545049978,-0.0987583332287842,3,12.7333333333333,29.9
2.9,11.8208760896082,22.0949136323013,2.65434595774441,-0.102169492755364,3,12.7,29.9
2.93333333333333,11.821152498694,22.1816599630265,2.55046606531186,-0.103879892432558,3,12.6666666666667,29.9
2.96666666666667,11.8214196860177,22.2649155053849,2.44489794674979,-0.105568118562068,3,12.6333333333333,29.9
3,11.8216772485678,22.3446239919765,2.33764198130132,-0.107255965448472,3,12.6,29.9
3.03333333333333,11.8219247960013,22.420728825304,2.22867930662985,-0.108962674671471,3,12.5666666666667,29.9
3.06666666666667,11.8221620420167,22.4932055106474,2.12009342154451,-0.108585885085332,3,12.5333333333333,29.9
3.1,11.822388871206,22.5620849396594,2.01302736511672,-0.107066056427794,3,12.5,29.9
3.13333333333333,11.8226052787741,22.6274310563267,1.90814598911472,-0.104881376001999,3,12.4666666666667,29.9
3.16666666666667,11.822811312503,22.6893197683737,1.8055877885152,-0.102558200599519,3,12.4333333333333,29.9
3.2,11.8230070434094,22.7478284111494,1.70532216304957,-0.100265625465631,3,12.4,29.9
3.23333333333333,11.8231926375767,22.8030604557663,1.60897510409228,-0.096347058957295,3,12.3666666666667,29.9
3.26666666666667,11.8233682712747,22.8551162198723,1.51473513902388,-0.0942399650683983,3,12.3333333333333,29.9
3.3,11.8235340478825,22.9040647069655,1.42252194525382,-0.0922131937700545,3,12.3,29.9
3.33333333333333,11.8236900788979,22.9499722282363,1.33226890518756,-0.0902530400662651,3,12.2666666666667,29.9
3.36666666666667,11.8238363990876,22.9929033306609,1.24392328225574,-0.0883456229318214,3,12.2333333333333,29.9
3.4,11.8239727450013,23.0329203240251,1.15741147830537,-0.0865118039503665,3,12.2,29.9
3.43333333333333,11.8240988782866,23.0700835099335,1.07269262755269,-0.0847188507526757,3,12.1666666666667,29.9
3.46666666666667,11.8242146829788,23.1044531188015,0.989810378684754,-0.0828822488679397,3,12.1333333333333,29.9
3.5,11.8243201624016,23.1360916234946,0.908836810410565,-0.080973568274189,3,12.1,29.9
3.53333333333333,11.8244154234744,23.1650633143346,0.829795810752375,-0.0790409996581903,3,12.0666666666667,29.9
3.56666666666667,11.8245006507065,23.1914311884521,0.752587875559045,-0.0772079351933292,3,12.0333333333333,29.9
3.6,11.8245760813666,23.2152544364538,0.677103385045661,-0.0754844905133841,3,12,29.9
3.63333333333333,11.8246419911719,23.2365892355767,0.603279559314888,-0.0738238257307735,3,11.9666666666667,29.9
3.66666666666667,11.82469868632,23.2554911897933,0.531138528492186,-0.0721410308227017,3,11.9333333333333,29.9
3.7,11.8247465807826,23.2720455038161,0.462421946311625,-0.0687165821805614,3,11.9,29.9
3.73333333333333,11.8247861829209,23.2863662251366,0.397115356834452,-0.0653065894771724,3,11.8666666666667,29.9
3.76666666666667,11.8248179967761,23.2985663098478,0.335167448591878,-0.0619479082425743,3,11.8333333333333,29.9
3.8,11.8248425960593,23.3087845210484,0.278186007502146,-0.0569814410897323,3,11.8,29.9
3.83333333333333,11.8248607044956,23.317213849929,0.227815916945734,-0.050370090556411,3,11.7666666666667,29.9
3.86666666666667,11.8248730218268,23.3240443658165,0.182250531779613,-0.0455653851661212,3,11.7333333333333,29.9
3.9,11.824880054813,23.3294070990817,0.139753188823689,-0.0424973429559246,3,11.7,29.9
3.93333333333333,11.8248822086295,23.3334048003403,0.10034977991734,-0.0394034089063485,3,11.6666666666667,29.9
3.96666666666667,11.8248799559524,23.33616886331,0.0657361662194143,-0.0346136136979259,3,11.6333333333333,29.9
4,11.8248737461466,23.3378288384924,0.034120077707002,-0.0316160885124124,3,11.6,29.9
4.03333333333333,11.8248640044203,23.3385120479182,0.00731313769631584,-0.0268069400106861,3,11.5666666666667,29.9
4.06666666666667,11.8248514217946,23.3384414785213,0.00552800788250009,-0.00178512981381575,5,11.5333333333333,29.9
4.1,11.8248379453463,23.3382691546398,0.00220426924424662,-0.00332373863825348,5,11.5,29.9
4.13333333333333,11.8248379453463,23.3382691546398,0.00256598404524646,0.000361714800999842,5,11.4666666666667,29.9
4.16666666666667,11.8248379453463,23.3382691546398,0.00296295135530985,0.000396967310063395,5,11.4333333333333,29.9
4.2,11.8248379453463,23.3382691546398,0.00334746236713953,0.000384511011829678,5,11.4,29.9
4.23333333333333,11.8248379453463,23.3382691546398,0.00367073131779639,0.000323268950656861,5,11.3666666666667,29.9
4.26666666666667,11.8248379453463,23.3382691546398,0.00388896813727142,0.000218236819475025,5,11.3333333333333,29.9
4.3,11.8248379453463,23.3382691546398,0.00396806336688693,7.90952296155127e-05,5,11.3,29.9
4.33333333333333,11.8248379453463,23.3382691546398,0.00388668894183332,-8.13744250536116e-05,5,11.2666666666667,29.9
4.36666666666667,11.8248379453463,23.3382691546398,0.00363778078789484,-0.000248908153938473,5,11.2333333333333,29.9
4.4,11.8248379453463,23.3382691546398,0.00322850741938074,-0.000409273368514104,5,11.2,29.9
4.43333333333333,11.8248379453463,23.3382691546398,0.00267893645549876,-0.000549570963881984,5,11.1666666666667,29.9
4.46666666666667,11.8248379453463,23.3382691546398,0.00201968509981059,-0.000659251355688162,5,11.1333333333333,29.9
4.5,11.8248379453463,23.3382691546398,0.00128888101952912,-0.00073080408028147,5,11.1,29.9
4.53333333333333,11.8248379453463,23.3382691546398,0.000528769068101748,-0.000760111951427376,5,11.0666666666667,29.9
4.56666666666667,11.8248379453463,23.3382691546398,0.000217718827543823,-0.000311050240557926,5,11.0333333333333,29.9
4.6,11.8248379453463,23.3382691546398,0.000910152995197602,0.000692434167653779,5,11,29.9
4.63333333333333,11.8248379453463,23.3382691546398,0.00151333198405577,0.000603178988858173,5,10.9666666666667,29.9
4.66666666666667,11.8248379453463,23.3382691546398,0.0019993866046085,0.000486054620552724,5,10.9333333333333,29.9
4.7,11.8248379453463,23.3382691546398,0.00234917042293775,0.000349783818329252,5,10.9,29.9
4.73333333333333,11.8248379453463,23.3382691546398,0.00255290965078289,0.000203739227845141,5,10.8666666666667,29.9
4.76666666666667,11.8248379453463,23.3382691546398,0.00261014320247437,5.72335516914823e-05,5,10.8333333333333,29.9
4.8,11.8248379453463,23.3382691546398,0.00252903157678646,-8.11116256879151e-05,5,10.8,29.9
4.83333333333333,11.8248379453463,23.3382691546398,0.00232514913677816,-0.000203882440008297,5,10.7666666666667,29.9
4.86666666666667,11.8248379453463,23.3382691546398,0.00201989741942089,-0.000305251717357272,5,10.7333333333333,29.9
4.9,11.8248379453463,23.3382691546398,0.00163868745807826,-0.000381209961342634,5,10.7,29.9
4.93333333333333,11.8248379453463,23.3382691546398,0.00111042635274772,-0.000528261105330535,5,10.6666666666667,29.9
4.96666666666667,11.824838695555,23.3385238914133,0.0108870652889283,0.00977663893618058,5,10.6333333333333,29.9
5,11.8248403323854,23.3390796895131,0.0224486259838688,0.0115615606949405,5,10.6,29.9
5.03333333333333,11.8248433516924,23.3401048375079,0.0390380930213539,0.0165894670374851,5,10.5666666666667,29.9
5.06666666666667,11.8248483256339,23.341793414168,0.0622550803179559,0.023216987296602,4,10.5333333333333,29.9
5.1,11.8248555610911,23.3442491794985,0.0850679344475168,0.0228128541295608,4,10.5,29.9
5.13333333333333,11.8248651016893,23.3474861238758,0.109123921721552,0.0240559872740354,4,10.4666666666667,29.9
5.16666666666667,11.8248772387047,23.3516018248882,0.137783749377743,0.0286598276561907,4,10.4333333333333,29.9
5.2,11.824892340313,23.3567192719082,0.169211384742335,0.0314276353645919,4,10.4,29.9
5.23333333333333,11.8249105136389,23.3628718659802,0.199874788702118,0.0306634039597837,4,10.3666666666667,29.9
5.26666666666667,11.8249319470999,23.3701194708694,0.234892421945867,0.0350176332437488,4,10.3333333333333,29.9
5.3,11.8249569972723,23.3785776818798,0.272503502178109,0.0376110802322413,4,10.3,29.9
5.33333333333333,11.824986025331,23.388361986995,0.31445046076669,0.0419469585885809,4,10.2666666666667,29.9
5.36666666666667,11.8250192292352,23.3995304796893,0.355545860399692,0.0410953996330021,4,10.2333333333333,29.9
5.4,11.8250565584187,23.4120547218188,0.395788722777167,0.0402428623774758,4,10.2,29.9
5.43333333333333,11.8250979685673,23.4259063110239,0.435181857229669,0.0393931344525017,4,10.1666666666667,29.9
5.46666666666667,11.8251435914955,23.4411147202118,0.477191758941599,0.04200990171193,4,10.1333333333333,29.9
5.5,11.8251935638555,23.4577093152075,0.518342885333657,0.0411511263920575,4,10.1,29.9
5.53333333333333,11.8252478528161,23.4756604686069,0.558578999826325,0.0402361144926683,4,10.0666666666667,29.9
5.56666666666667,11.8253064246667,23.4949373129418,0.597881297978066,0.0393022981517409,4,10.0333333333333,29.9
5.6,11.8253692453615,23.5155085636347,0.63624273850376,0.0383614405256941,4,10,29.9
5.63333333333333,11.825436279398,23.5373428533948,0.673664758947854,0.0374220204440939,4,9.96666666666667,29.9
5.66666666666667,11.8255074884747,23.5604090323232,0.710162467314734,0.03649770836688,4,9.93333333333333,29.9
5.7,11.8255828320158,23.5846771005613,0.745789415746461,0.0356269484317265,4,9.9,29.9
5.73333333333333,11.8256622674022,23.6101189948768,0.78060145209459,0.0348120363481291,4,9.86666666666667,29.9
5.76666666666667,11.8257457473881,23.6367083320869,0.814643897312885,0.034042445218295,4,9.83333333333334,29.9
5.8,11.8258332177527,23.6644201042683,0.847954227900974,0.0333103305880892,4,9.8,29.9
5.83333333333333,11.8259246156561,23.693230451266,0.88056404237288,0.0326098144719064,4,9.76666666666667,29.9
5.86666666666667,11.8260198687089,23.7231164869394,0.912500080443818,0.0319360380709375,4,9.73333333333333,29.9
5.9,11.8261188939532,23.7540558930516,0.943761404189995,0.0312613237461774,4,9.7,29.9
5.93333333333333,11.8262215947264,23.7860255941644,0.974313128030403,0.0305517238404077,4,9.66666666666667,29.9
5.96666666666667,11.8263278614449,23.8190015549536,1.00413482798829,0.0298216999578901,4,9.63333333333333,29.9
6,11.826437575021,23.852959279487,1.03321808422656,0.0290832562382639,4,9.6,29.9
6.03333333333333,11.8265506101979,23.8878741247397,1.06156257475246,0.0283444905259016,4,9.56666666666667,29.9
6.06666666666667,11.8266664060543,23.9235770582274,1.08051040200566,0.0189478272531989,4,9.53333333333333,29.9
6.1,11.8267838846473,23.9597275846743,1.0884354290325,0.00792502702684494,2,9.5,29.9
6.13333333333333,11.8269023221371,23.9961044530322,1.09411081253737,0.00567538350486485,2,9.46666666666667,29.9
6.16666666666667,11.827021176775,24.0325477802596,1.09244312300586,-0.0016676895315102,2,9.43333333333333,29.9
6.2,11.8271397449237,24.0688439563137,1.08530372370379,-0.00713939930206497,2,9.4,29.9
6.23333333333333,11.8272572495486,24.104755045565,1.06936241780587,-0.0159413058979214,2,9.36666666666667,29.9
6.26666666666667,11.827372667123,24.1399615048398,1.04305538735933,-0.0263070304465454,3,9.33333333333333,29.9
6.3,11.8274852537156,24.174236298359,1.01349245637266,-0.0295629309866614,3,9.3,29.9
6.33333333333333,11.8275947192397,24.2075019367613,0.982531879932447,-0.0309605764402163,3,9.26666666666667,29.9
6.36666666666667,11.827700965165,24.2397430507184,0.952041367519791,-0.0304905124126563,3,9.23333333333333,29.9
