Time,x_ego,y_ego,velocity,acceleration,action,x_ped,y_ped
0,11.8,15.9,5,0,1,15.5,29.9
0.0333333333333333,11.8,16.0666076888419,4.99642261439338,-0.0035773856066168,1,15.4502170138889,29.9
0.0666666666666667,11.8,16.2330926531145,4.99264756783477,-0.00377504655861216,1,15.4008680555556,29.9
0.1,11.8,16.399449296924,4.98873130122091,-0.00391626661385835,1,15.351953125,29.9
0.133333333333333,11.8,16.5656736245138,4.98471426828108,-0.00401703293983147,1,15.3034722222222,29.9
0.166666666666667,11.8,16.7317627870126,4.98062546389497,-0.00408880438611448,1,15.2554253472222,29.9
0.2,11.8,16.8977147575669,4.97648566969706,-0.00413979419790333,1,15.2078125,29.9
0.233333333333333,11.8,17.063528098494,4.97230978036584,-0.00417588933122204,1,15.1606336805556,29.9
0.266666666666667,11.8,17.2292017943893,4.96810847105553,-0.00420130931030815,1,15.1138888888889,29.9
0.3,11.799992813429,17.394735132489,4.96388943021585,-0.00421904083968627,1,15.067578125,29.9
0.333333333333333,11.7999466921026,17.5601276162307,4.95965848274013,-0.0042309474757154,1,15.0217013888889,29.9
0.366666666666667,11.799834170145,17.7253789001176,4.95541999819318,-0.00423848454695275,1,14.9762586805556,29.9
0.4,11.799639397792,17.8904887407477,4.95117688012845,-0.00424311806473199,1,14.93125,29.9
0.433333333333333,11.7993561584729,18.0554569637077,4.94693084622402,-0.00424603390442702,1,14.8866753472222,29.9
0.466666666666667,11.7989854178096,18.220283444078,4.94268285569279,-0.00424799053123159,1,14.8425347222222,29.9
0.5,11.798532919922,18.3849680962321,4.93843349144689,-0.00424936424589983,1,14.798828125,29.9
0.533333333333333,11.7980071414471,18.5495108684142,4.93418320436126,-0.00425028708562714,1,14.7555555555556,29.9
0.566666666666667,11.7974177252308,18.7139117387445,4.92993242090429,-0.00425078345696939,1,14.7127170138889,29.9
0.6,11.7967743767914,18.8781707109064,4.92568156225466,-0.0042508586496286,1,14.6703125,29.9
0.633333333333333,11.7960861302664,19.0422878090805,4.92143102640146,-0.00425053585320168,1,14.6283420138889,29.9
0.666666666666667,11.7953620588125,19.2062630748755,4.91718091960017,-0.00425010680129212,1,14.5868055555556,29.9
0.7,11.7946144171586,19.3700965712266,4.9129313380578,-0.00424958154237132,1,14.545703125,29.9
0.733333333333333,11.7938556936406,19.5337883755658,4.90868260108381,-0.00424873697398898,1,14.5050347222222,29.9
0.766666666666667,11.7930976402204,19.6973385744664,4.90443494643053,-0.00424765465328392,1,14.4648003472222,29.9
0.8,11.7923520327227,19.860747262461,4.90018867557371,-0.00424627085681895,1,14.425,29.9
0.833333333333333,11.7916285880008,20.0240145333616,4.89594405946551,-0.00424461610819993,1,14.3856336805556,29.9
0.866666666666667,11.7909359448245,20.1871404797607,4.89170131410134,-0.00424274536416291,1,14.3467013888889,29.9
0.9,11.790279819705,20.3501251847689,4.88746060317798,-0.00424071092336575,1,14.308203125,29.9
0.933333333333333,11.7896626681533,20.5128818841291,4.87801203602663,-0.00944856715135067,1,14.2701388888889,29.9
0.966666666666667,11.7890835511636,20.6749488645916,4.84606981204325,-0.0319422239833775,3,14.2325086805556,29.9
1,11.7885411080106,20.8349710794528,4.75532060241028,-0.0907492096329658,3,14.1953125,29.9
1.03333333333333,11.7880320572375,20.9916805646167,4.64730179272739,-0.108018809682894,3,14.1585503472222,29.9
1.06666666666667,11.787550301779,21.1445591640097,4.52546494862708,-0.121836844100314,3,14.1222222222222,29.9
1.1,11.7870893862425,21.2933479952604,4.40191508141849,-0.123549867208582,3,14.086328125,29.9
1.13333333333333,11.7866429104934,21.4380768246072,4.28186648446905,-0.12004859694944,3,14.0508680555556,29.9
1.16666666666667,11.7862053430224,21.5788910618591,4.16704362541881,-0.114822859050247,3,14.0158420138889,29.9
1.2,11.7857723828951,21.7159648765156,4.05744724189893,-0.109596383519879,3,13.98125,29.9
1.23333333333333,11.7853409422151,21.8495015259984,3.95482082355279,-0.102626418346139,3,13.9470920138889,29.9
1.26666666666667,11.7849091663515,21.9797042609564,3.85741900237727,-0.097401821175521,3,13.9133680555556,29.9
1.3,11.7844765084622,22.1067181760789,3.76349620544024,-0.0939227969370298,3,13.9133680555556,29.9
1.33333333333333,11.784043578028,22.2306309313371,3.671350742473,-0.092145462967236,3,13.9133680555556,29.9
1.36666666666667,11.7836118559343,22.3515014559586,3.58096003132439,-0.0903907111486166,3,13.9133680555556,29.9
1.4,11.7831833662242,22.4693882895032,3.49232376185675,-0.0886362694676341,3,13.9133680555556,29.9
1.43333333333333,11.7827605003713,22.5843212431232,3.40371983237421,-0.0886039294825389,3,13.9133680555556,29.9
1.46666666666667,11.7823457381721,22.6963014039326,3.31514859445074,-0.0885712379234751,3,13.9133680555556,29.9
1.5,11.7819412919513,22.8053298422251,3.22661035279618,-0.0885382416545548,3,13.9133680555556,29.9
1.53333333333333,11.7815488952973,22.9114076140666,3.13810514931511,-0.0885052034810743,3,13.9133680555556,29.9
1.56666666666667,11.7811697658814,23.0145070606807,3.04791052184422,-0.0901946274708862,3,13.9133680555556,29.9
1.6,11.7808044658246,23.1146005166567,2.95774813703509,-0.0901623848091302,3,13.9133680555556,29.9
1.63333333333333,11.7804529509143,23.2116603120198,2.86589504066151,-0.0918530963735802,3,13.9133680555556,29.9
1.66666666666667,11.7801146952791,23.3056587755749,2.77407267501653,-0.0918223656449797,3,13.9133680555556,29.9
1.7,11.7797888681656,23.396567872714,2.68053641723628,-0.0935362577802565,3,13.9133680555556,29.9
1.73333333333333,11.7794745246606,23.4843595712955,2.58702995197466,-0.0935064652616151,3,13.9133680555556,29.9
1.76666666666667,11.7791706827733,23.5690349080173,2.49355325029274,-0.0934767016819182,3,13.9133680555556,29.9
1.8,11.7788765608762,23.6505949203736,2.40010656358182,-0.0934466867109189,3,13.9133680555556,29.9
1.83333333333333,11.7785916670014,23.7290406456222,2.30669034293015,-0.0934162206516755,3,13.9133680555556,29.9
1.86666666666667,11.7783158142681,23.8043731973583,2.21332248906798,-0.0933678538621687,3,13.9133680555556,29.9
1.9,11.7780490537661,23.8765991627243,2.12043058758176,-0.0928919014862157,3,13.9133680555556,29.9
1.93333333333333,11.7777915280903,23.9457510018716,2.02902204485292,-0.0914085427288422,3,13.9133680555556,29.9
1.96666666666667,11.7775433849135,24.0118889157931,1.9396372651482,-0.0893847797047194,3,13.9133680555556,29.9
2,11.7773047709225,24.075082947306,1.85238574322128,-0.087251521926921,3,13.9133680555556,29.9
2.03333333333333,11.7770757131711,24.1354326869456,1.76896814453726,-0.0834175986840202,3,13.9133680555556,29.9
2.06666666666667,11.7768562037041,24.1930350182419,1.68751665869884,-0.0814514858384208,3,13.9133680555556,29.9
2.1,11.7766462974824,24.2479532505588,1.60790868876182,-0.0796079699370147,3,13.9133680555556,29.9
2.13333333333333,11.7764459046858,24.3002763435815,1.53179886370785,-0.0761098250539791,3,13.9133680555556,29.9
2.16666666666667,11.7762548973836,24.3500909344557,1.45738171879806,-0.0744171449097812,3,13.9133680555556,29.9
2.2,11.7760732230916,24.3974520729717,1.38457991047754,-0.0728018083205264,3,13.9133680555556,29.9
2.23333333333333,11.7759008082552,24.442412815756,1.31334830311155,-0.0712316073659922,3,13.9133680555556,29.9
2.26666666666667,11.77573756223,24.4850246383855,1.24362945906681,-0.0697188440447327,3,13.9133680555556,29.9
2.3,11.7755833815533,24.5253368879651,1.1753626385786,-0.0682668204882098,3,13.9133680555556,29.9
2.33333333333333,11.7754381481751,24.5633972504708,1.1085095301684,-0.066853108410204,3,13.9133680555556,29.9
2.36666666666667,11.7753015169521,24.5993104747062,1.04653916308483,-0.0619703670835656,3,13.9133680555556,29.9
2.4,11.7751729078562,24.633239852349,0.989482113573735,-0.0570570495110985,3,13.9133680555556,29.9
2.43333333333333,11.7750517138303,24.6653488621298,0.937315910395152,-0.0521662031785831,3,13.9133680555556,29.9
2.46666666666667,11.7749374066524,24.6957717265331,0.888309480798126,-0.0490064295970259,3,13.9133680555556,29.9
2.5,11.7748294391848,24.7246410073614,0.844082356851421,-0.0442271239467055,3,13.9133680555556,29.9
2.53333333333333,11.7747273614068,24.7520562926867,0.801051647112128,-0.0430307097392931,3,13.9133680555556,29.9
2.56666666666667,11.7746307201373,24.7781132587536,0.76256828235683,-0.0384833647552978,3,13.9133680555556,29.9
2.6,11.7745390631886,24.8029040258356,0.725066824926429,-0.0375014574304003,3,13.9133680555556,29.9
2.63333333333333,11.7744521514072,24.8264599826427,0.688469221369653,-0.0365976035567763,3,13.9133680555556,29.9
2.66666666666667,11.774369650404,24.848838940152,0.654438730257734,-0.0340304911119187,3,13.9133680555556,29.9
2.7,11.7742912364282,24.8700973194319,0.621232434374888,-0.0332062958828464,3,13.9133680555556,29.9
2.73333333333333,11.7742165957097,24.8902916017302,0.590587895305706,-0.0306445390691817,3,13.9133680555556,29.9
2.76666666666667,11.7741453261428,24.9095065305913,0.562463118344433,-0.0281247769612732,3,13.9133680555556,29.9
2.8,11.7740771500746,24.9277969152147,0.535106229822179,-0.0273568885222536,3,13.9133680555556,29.9
2.83333333333333,11.7740118112725,24.9452165533789,0.510208888032856,-0.0248973417893239,3,13.9133680555556,29.9
2.86666666666667,11.7739489707077,24.9618471896164,0.487755837535586,-0.0224530504972695,3,13.9133680555556,29.9
2.9,11.7738884161833,24.9777405310763,0.465961808623925,-0.0217940289116606,3,13.9133680555556,29.9
2.93333333333333,11.7738299587648,24.9929465974508,0.446510758269942,-0.0194510503539835,3,13.9133680555556,29.9
2.96666666666667,11.7737734302933,25.0075140461112,0.427634907523827,-0.0188758507461145,3,13.9133680555556,29.9
3,11.7737187866974,25.0214612043533,0.409285268166132,-0.0183496393576958,3,13.9133680555556,29.9
3.03333333333333,11.7736660013587,25.0348049215956,0.391422322661946,-0.0178629455041854,5,13.9133680555556,29.9
3.06666666666667,11.7736150617783,25.0475608724985,0.374014528197727,-0.0174077944642191,5,13.9133680555556,29.9
3.1,11.7735658607453,25.0597728371574,0.358778403951488,-0.0152361242462394,5,13.9133680555556,29.9
3.13333333333333,11.773518405368,25.0714545964874,0.342198451656529,-0.0165799522949587,5,13.9133680555556,29.9
3.16666666666667,11.7734728142669,25.0825901172182,0.326001675865355,-0.0161967757911736,5,13.9133680555556,29.9
3.2,11.7734289972185,25.0932210017502,0.311917112226747,-0.0140845636386082,5,13.9133680555556,29.9
3.23333333333333,11.7733868652997,25.1033882651798,0.298180824834266,-0.0137362873924812,5,13.9133680555556,29.9
3.26666666666667,11.7733464355774,25.1131032068995,0.28477474552874,-0.0134060793055257,5,13.9133680555556,29.9
3.3,11.7733077236457,25.122376576124,0.271683828558192,-0.0130909169705485,5,13.9133680555556,29.9
3.33333333333333,11.7732708483917,25.131189608502,0.257153132420069,-0.0145306961381222,5,13.9133680555556,29.9
3.36666666666667,11.7732358182573,25.1395523651919,0.244665805894329,-0.0124873265257406,5,13.9133680555556,29.9
3.4,11.7732025307529,25.1475037265824,0.232467242623189,-0.0121985632711403,5,13.9133680555556,29.9
3.43333333333333,11.7731710912605,25.1550240847269,0.21880562949747,-0.0136616131257188,5,13.9133680555556,29.9
3.46666666666667,11.7731415987144,25.1620939976422,0.205446677336793,-0.0133589521606769,5,13.9133680555556,29.9
3.5,11.7731140361343,25.1687241508271,0.192424618543402,-0.0130220587933911,5,13.9133680555556,29.9
3.53333333333333,11.7730883775954,25.1749261799,0.179761914744437,-0.0126627037989649,5,13.9133680555556,29.9
3.56666666666667,11.7730644835777,25.1807413429507,0.169212552444701,-0.0105493622997355,5,13.9133680555556,29.9
3.6,11.7730423162312,25.1861818943926,0.157284681111004,-0.0119278713336974,5,13.9133680555556,29.9
3.63333333333333,11.7730219403545,25.1912309721814,0.145724331903166,-0.0115603492078383,5,13.9133680555556,29.9
3.66666666666667,11.7730033104672,25.1959008478899,0.134532052875011,-0.0111922790281544,5,13.9133680555556,29.9
3.7,11.7729863782907,25.2002037497722,0.123704903895701,-0.0108271489793107,5,13.9133680555556,29.9
3.73333333333333,11.7729710936387,25.2041517642482,0.113237471111856,-0.0104674327838449,5,13.9133680555556,29.9
3.76666666666667,11.7729574051713,25.2077567666023,0.10312261647038,-0.0101148546414751,5,13.9133680555556,29.9
3.8,11.7729452610309,25.2110303732403,0.0933520308575409,-0.0097705856128396,5,13.9133680555556,29.9
3.83333333333333,11.7729345026237,25.2140129520776,0.0856577878318679,-0.00769424302567301,5,13.9133680555556,29.9
3.86666666666667,11.7729249726423,25.2167442936409,0.0782738135656185,-0.00738397426624944,5,13.9133680555556,29.9
3.9,11.7729167295336,25.2192053355372,0.0694379195476064,-0.00883589401801203,5,13.9133680555556,29.9
3.93333333333333,11.7729097261307,25.2214056806519,0.0626300913539866,-0.00680782819361982,5,13.9133680555556,29.9
3.96666666666667,11.7729039166562,25.2233545656394,0.0543487862714314,-0.00828130508255522,5,13.9133680555556,29.9
4,11.7728993636091,25.2250318503295,0.04633393352702,-0.00801485274441133,5,13.9133680555556,29.9
4.03333333333333,11.7728959166078,25.2264754135941,0.0403237507133816,-0.00601018281363847,5,13.9133680555556,29.9
4.06666666666667,11.7728934272329,25.2277227433281,0.0345572627054201,-0.00576648800796144,5,13.9133680555556,29.9
4.1,11.7728918567404,25.2287816711796,0.0290176749294318,-0.00553958777598838,5,13.9133680555556,29.9
4.13333333333333,11.7728911691879,25.2296595154841,0.0236909176894736,-0.00532675723995812,5,13.9133680555556,29.9
4.16666666666667,11.7728914376193,25.2303341182131,0.0168241212272084,-0.00686679646226525,5,13.9133680555556,29.9
4.2,11.7728927361511,25.2307832143378,0.0101637975693893,-0.00666032365781909,5,13.9133680555556,29.9
4.23333333333333,11.7728949258169,25.2310427426189,0.00545381261551103,-0.00470998495387827,5,13.9133680555556,29.9
4.26666666666667,11.7728980032334,25.23111196992,0.00202332138532858,-0.00343049123018245,5,13.9133680555556,29.9
4.3,11.7729017635212,25.2310451673742,0.000223436812928996,-0.00179988457239958,5,13.9133680555556,29.9
4.33333333333333,11.7729017635212,25.2310451673742,0.000206487118666197,-1.69496942627986e-05,5,13.9133680555556,29.9
4.36666666666667,11.7729017635212,25.2310451673742,0.000207463005743194,9.75887076996802e-07,5,13.9133680555556,29.9
4.4,11.7729017635212,25.2310451673742,0.000225411291863384,1.79482861201901e-05,5,13.9133680555556,29.9
4.43333333333333,11.7729017635212,25.2310451673742,0.000256609290554265,3.11979986908809e-05,5,13.9133680555556,29.9
4.46666666666667,11.7729017635212,25.2310451673742,0.000295524678741765,3.89153881874999e-05,5,13.9133680555556,29.9
4.5,11.7729017635212,25.2310451673742,0.000335772140241911,4.02474615001459e-05,5,13.9133680555556,29.9
4.53333333333333,11.7729017635212,25.2310451673742,0.000370984880002551,3.52127397606401e-05,5,13.9133680555556,29.9
4.56666666666667,11.7729017635212,25.2310451673742,0.000395540386653529,2.4555506650978e-05,5,13.9133680555556,29.9
4.6,11.7729017635212,25.2310451673742,0.000405102061783936,9.56167513040655e-06,5,13.9133680555556,29.9
4.63333333333333,11.7729017635212,25.2310451673742,0.000396959715516731,-8.14234626720441e-06,5,13.9133680555556,29.9
4.66666666666667,11.7729017635212,25.2310451673742,0.000370171005631114,-2.67887098856168e-05,5,13.9133680555556,29.9
4.7,11.7729017635212,25.2310451673742,0.000325521640494859,-4.46493651362557e-05,5,13.9133680555556,29.9
4.73333333333333,11.7729017635212,25.2310451673742,0.000265333958939139,-6.01876815557196e-05,5,13.9133680555556,29.9
4.76666666666667,11.7729017635212,25.2310451673742,0.000193161116795465,-7.21728421436737e-05,5,13.9133680555556,29.9
4.8,11.7729017635212,25.2310451673742,0.000113407664181457,-7.97534526140081e-05,5,13.9133680555556,29.9
4.83333333333333,11.7729017635212,25.2310451673742,3.09171793861939e-05,-8.24904847952634e-05,5,13.9133680555556,29.9
4.86666666666667,11.7729017635212,25.2310451673742,4.94355735833495e-05,1.85183941971557e-05,5,13.9133680555556,29.9
4.9,11.7729017635212,25.2310451673742,0.000123116056733695,7.36804831503454e-05,5,13.9133680555556,29.9
4.93333333333333,11.7729017635212,25.2310451673742,0.000186240178262124,6.31241215284295e-05,5,13.9133680555556,29.9
4.96666666666667,11.7729017635212,25.2310451673742,0.000235806525989482,4.95663477273579e-05,5,13.9133680555556,29.9
5,11.7729017635212,25.2310451673742,0.00026984189812488,3.40353721353976e-05,5,13.9133680555556,29.9
5.03333333333333,11.7729017635212,25.2310451673742,0.000287459003646212,1.76171055213325e-05,5,13.9133680555556,29.9
5.06666666666667,11.7729017635212,25.2310451673742,0.000288831824763608,1.37282111739557e-06,5,13.9133680555556,29.9
5.1,11.7729017635212,25.2310451673742,0.000176487338796085,-0.000112344485967523,5,13.9133680555556,29.9
5.13333333333333,11.7729010015761,25.2312526946055,0.0077338501862957,0.00755736284749961,5,13.9133680555556,29.9
5.16666666666667,11.7728990272926,25.2317904135437,0.0245108087204815,0.0167769585341858,5,13.9133680555556,29.9
5.2,11.772893107698,25.2334027528902,0.0721715301794887,0.0476607214590073,4,13.9133680555556,29.9
5.23333333333333,11.7728811749117,25.2366532947673,0.122751875162126,0.0505803449826374,4,13.9133680555556,29.9
5.26666666666667,11.7728631081156,25.2415760705279,0.172471559245133,0.0497196840830069,4,13.9133680555556,29.9
5.3,11.7728390346842,25.2481386998227,0.221123914452285,0.0486523552071521,4,13.9133680555556,29.9
5.33333333333333,11.7728091079126,25.2563032935483,0.268591583469178,0.0474676690168928,4,13.9133680555556,29.9
5.36666666666667,11.7727734931434,25.266030517745,0.314900474107806,0.0463088906386281,4,13.9133680555556,29.9
5.4,11.7727323568353,25.2772827619393,0.360106730899809,0.045206256792003,4,13.9133680555556,29.9
5.43333333333333,11.7726858669951,25.2900241082203,0.404255230649105,0.0441484997492957,4,13.9133680555556,29.9
5.46666666666667,11.7726341942905,25.3042199990657,0.447382823930598,0.0431275932814934,4,13.9133680555556,29.9
5.5,11.7725775125309,25.3198369551307,0.489515401273661,0.0421325773430624,4,13.9133680555556,29.9
5.53333333333333,11.7725160001779,25.3368418882091,0.530652144375225,0.0411367431015646,4,13.9133680555556,29.9
5.56666666666667,11.7724498408481,25.3552015676248,0.570791428579883,0.0401392842046578,4,13.9133680555556,29.9
5.6,11.7723792207425,25.3748828145634,0.609939144905698,0.0391477163258154,4,13.9133680555556,29.9
5.63333333333333,11.7723043256723,25.3958527168991,0.64810636820074,0.0381672232950417,4,13.9133680555556,29.9
5.66666666666667,11.7722253290064,25.4180812582498,0.685569834335382,0.0374634661346417,4,13.9133680555556,29.9
5.7,11.7721423198223,25.4415602454149,0.723335945807253,0.0377661114718708,4,13.9133680555556,29.9
5.73333333333333,11.7720552318215,25.4663221230361,0.762801465128391,0.0394655193211381,4,13.9133680555556,29.9
5.76666666666667,11.7719638053048,25.4924499536142,0.805566683681052,0.0427652185526611,4,13.9133680555556,29.9
5.8,11.7718675802677,25.5200791324851,0.853094271016034,0.0475275873349817,4,13.9133680555556,29.9
5.83333333333333,11.7717659344223,25.5493870672013,0.906441859280752,0.0533475882647183,4,13.9133680555556,29.9
5.86666666666667,11.7716581297042,25.5805807489068,0.966336590123285,0.0598947308425334,4,13.9133680555556,29.9
5.9,11.7715433518258,25.6138864203256,1.03320457410832,0.0668679839850334,4,13.9133680555556,29.9
5.93333333333333,11.7714207522406,25.6495387719892,1.10712173727049,0.0739171631621689,4,13.9133680555556,29.9
5.96666666666667,11.7712894900715,25.6877703185343,1.1879101330555,0.0807883957850155,4,13.9133680555556,29.9
6,11.7711487583342,25.7288052278745,1.27526633197836,0.0873561989228604,4,13.9133680555556,29.9
6.03333333333333,11.7709977996721,25.7728561450469,1.36879028472741,0.0935239527490475,4,13.9133680555556,29.9
6.06666666666667,11.7708359268403,25.820119758836,1.46792360872058,0.0991333239931667,4,13.9133680555556,29.9
6.1,11.7706625458997,25.8707715628774,1.57195973473297,0.104036126012388,4,13.9133680555556,29.9
6.13333333333333,11.7704771724933,25.9249623320414,1.68014042473755,0.108180690004587,4,13.9133680555556,29.9
