Time,x_ego,y_ego,velocity,acceleration,action,x_ped,y_ped
0,11.8,8.9,7,0,1,15.5,29.9
0.0333333333333333,11.8000066704774,9.13327037937785,6.99615580151573,-0.00384419848427253,1,15.5,29.9
0.0666666666666667,11.800048407691,9.36640659816637,6.99196971387884,-0.00418608763688422,1,15.5,29.9
0.1,11.8001478012749,9.59940074947434,6.98769581632711,-0.00427389755173557,1,15.5,29.9
0.133333333333333,11.8003165652486,9.83225375948429,6.98349939216032,-0.00419642416678911,1,15.5,29.9
0.166666666666667,11.8005587848045,10.0649678026478,6.9793586371614,-0.00414075499891631,1,15.5,29.9
0.2,11.8008738256293,10.2975444363615,6.97525786401868,-0.00410077314271984,1,15.5,29.9
0.233333333333333,11.8012585625886,10.529984778047,6.97118584658602,-0.00407201743266494,1,15.5,29.9
0.266666666666667,11.801708854191,10.7622896324263,6.96713458833914,-0.00405125824688124,1,15.5,29.9
0.3,11.8022203693586,10.9944595822898,6.96309840492777,-0.00403618341136625,1,15.5,29.9
0.333333333333333,11.8027889600978,11.2264950528392,6.95907325225505,-0.00402515267271841,1,15.5,29.9
0.366666666666667,11.8034107831265,11.4583963571543,6.95505624530648,-0.00401700694857166,1,15.5,29.9
0.4,11.8040823315349,11.6901637282765,6.95104531971305,-0.00401092559343486,1,15.5,29.9
0.433333333333333,11.8048004726165,11.921797341812,6.94703899569906,-0.00400632401398049,1,15.5,29.9
0.466666666666667,11.805562524244,12.1532973318094,6.94303621302955,-0.00400278266951126,1,15.5,29.9
0.5,11.8063663555286,12.3846638018887,6.93903621418949,-0.00399999884006341,1,15.5,29.9
0.533333333333333,11.8072104745772,12.6158968330651,6.93503846019752,-0.00399775399196844,1,15.5,29.9
0.566666666666667,11.8080940655535,12.8469964893289,6.93104256889103,-0.00399589130649236,1,15.5,29.9
0.6,11.8090169521894,13.0779628217451,6.92704826930578,-0.00399429958524422,1,15.5,29.9
0.633333333333333,11.8099794865031,13.3087958716003,6.92305536813713,-0.00399290116865103,1,15.5,29.9
0.666666666666667,11.8109823815281,13.5394956729298,6.91906372555381,-0.00399164258332529,1,15.5,29.9
0.7,11.812026519654,13.7700622546105,6.91507323826548,-0.00399048728832785,1,15.5,29.9
0.733333333333333,11.8131127713711,14.0004956420978,6.91108382809577,-0.00398941016971488,1,15.5,29.9
0.766666666666667,11.8142418535252,14.2307958588199,6.90709543459605,-0.00398839349971958,1,15.5,29.9
0.8,11.8154142445278,14.4609629272211,6.90310801050144,-0.0039874240946105,1,15.5,29.9
0.833333333333333,11.81663016016,14.6909968694524,6.89912151905669,-0.00398649144474472,1,15.5,29.9
0.866666666666667,11.8178895812789,14.9208977077363,6.89513593242249,-0.00398558663420268,1,15.5,29.9
0.9,11.8191931075244,15.1506654608738,6.89115131100864,-0.00398462141384481,1,15.5,29.9
0.933333333333333,11.8205438265305,15.3803001349856,6.88716767102142,-0.00398363998722751,1,15.5,29.9
0.966666666666667,11.8219441260486,15.6098017369743,6.88318494084513,-0.00398273017628714,1,15.5,29.9
1,11.8233951383219,15.8391702780568,6.87920307010854,-0.00398187073659173,1,15.5,29.9
1.03333333333333,11.824897149738,16.0684057728609,6.87522202838355,-0.00398104172498392,1,15.5,29.9
1.06666666666667,11.8264499514317,16.2975082384294,6.87124180209862,-0.00398022628493244,1,15.5,29.9
1.1,11.8280530936838,16.5264776933741,6.86726238974238,-0.00397941235624,1,15.5,29.9
1.13333333333333,11.8297060415159,16.7553141572828,6.86328379658203,-0.00397859316035287,1,15.5,29.9
1.16666666666667,11.831408250908,16.9840176503736,6.85930603018842,-0.00397776639360803,1,15.5,29.9
1.2,11.8331591943707,17.2125881933282,6.85532909749988,-0.00397693268854393,1,15.5,29.9
1.23333333333333,11.8349583635994,17.4410258072046,6.85135300350138,-0.00397609399849763,1,15.5,29.9
1.26666666666667,11.8368052694789,17.6693305133485,6.84737775115001,-0.00397525235137053,1,15.5,29.9
1.3,11.8386994498123,17.8975023332499,6.84340334200362,-0.00397440914638381,1,15.5,29.9
1.33333333333333,11.8406404861348,18.125541288341,6.83942977704327,-0.00397356496035428,1,15.5,29.9
1.36666666666667,11.8426280249096,18.3534473997657,6.83545705732741,-0.00397271971586388,1,15.5,29.9
1.4,11.8446617959841,18.581220688167,6.83148518430129,-0.00397187302611091,1,15.5,29.9
1.43333333333333,11.8467416219974,18.808861173545,6.82751415975246,-0.00397102454883758,1,15.5,29.9
1.46666666666667,11.8488674153285,19.0363688752156,6.82354398551867,-0.00397017423378454,1,15.5,29.9
1.5,11.8510391627916,19.2637438118785,6.81957466310449,-0.00396932241418479,1,15.5,29.9
1.53333333333333,11.8532569014049,19.4909860017748,6.81560619335244,-0.00396846975204923,1,15.5,29.9
1.56666666666667,11.855520690406,19.7180954628997,6.81163857626659,-0.00396761708585291,1,15.5,29.9
1.6,11.8578298027012,19.9450722201856,6.80767172191728,-0.00396685434930966,1,15.5,29.9
1.63333333333333,11.8601801047704,20.1719163301323,6.80370550956061,-0.00396621235666217,1,15.5,29.9
1.66666666666667,11.8625629707397,20.3986278942291,6.79973973493054,-0.00396577463007475,1,15.5,29.9
1.7,11.864961385125,20.6252070998107,6.79577428161876,-0.00396545331177922,1,15.5,29.9
1.73333333333333,11.8673531174245,20.8516541951818,6.79180939534244,-0.00396488627631975,1,15.5,29.9
1.76666666666667,11.869715523049,21.0779694426401,6.78784543774269,-0.00396395759975121,1,15.5,29.9
1.8,11.872024775875,21.3041531199835,6.78388277872871,-0.00396265901397896,1,15.5,29.9
1.83333333333333,11.8742581122779,21.5302054910746,6.77992178734968,-0.00396099137902972,1,15.5,29.9
1.86666666666667,11.8764009920691,21.7561267275461,6.77596251074626,-0.00395927660341844,1,15.5,29.9
1.9,11.8784488687938,21.9819168882058,6.77200462718733,-0.0039578835589289,1,15.5,29.9
1.93333333333333,11.8804041500261,22.2075759528557,6.76804772384584,-0.00395690334149457,1,15.5,29.9
1.96666666666667,11.8822731120912,22.4331038597142,6.76409149408806,-0.00395622975777954,1,15.5,29.9
2,11.8840637587356,22.6585005326842,6.76013578865667,-0.00395570543138923,1,15.5,29.9
2.03333333333333,11.8857844853098,22.8837658980718,6.75618058266355,-0.00395520599312071,1,15.5,29.9
2.06666666666667,11.8874433225442,23.1088998929861,6.75222591988795,-0.00395466277560175,1,15.5,29.9
2.1,11.8890475341972,23.3339024684488,6.74827186814835,-0.00395405173959507,1,15.5,29.9
2.13333333333333,11.8906033960242,23.558773589789,6.744318494538,-0.0039533736103543,1,15.5,29.9
2.16666666666667,11.8921168308588,23.7835132297601,6.74036576849516,-0.00395272604283914,1,15.5,29.9
2.2,11.8935950787553,24.008121354467,6.73641371534418,-0.00395205315098046,1,15.5,29.9
2.23333333333333,11.8950434644411,24.2325979488277,6.73246245285674,-0.00395126248743427,1,15.5,29.9
2.26666666666667,11.89646481549,24.4569430189473,6.72851205994178,-0.00395039291496158,1,15.5,29.9
2.3,11.8978599457349,24.6811565864919,6.72456258061271,-0.00394947932906931,1,15.5,29.9
2.33333333333333,11.8992282007991,24.905238683379,6.720614032712,-0.00394854790071353,1,15.5,29.9
2.36666666666667,11.9005679987742,25.1291893471322,6.71666641685737,-0.0039476158546341,1,15.5,29.9
2.4,11.9018773142233,25.3530086171167,6.71271972352788,-0.00394669332948894,1,15.5,29.9
2.43333333333333,11.9031540698337,25.576696531768,6.70877393788898,-0.00394578563889336,1,15.5,29.9
2.46666666666667,11.9043964168274,25.8002531268973,6.70482905386909,-0.0039448840198899,1,15.5,29.9
2.5,11.9056029014069,26.0236784366408,6.70088518439549,-0.00394386947360825,1,15.5,29.9
2.53333333333333,11.9067725284135,26.24697250024,6.69694272708796,-0.00394245730752818,1,15.5,29.9
2.56666666666667,11.9079047434139,26.4701353719485,6.69300231201205,-0.00394041507590348,1,15.5,29.9
2.6,11.908999359772,26.6931671246412,6.68906450054516,-0.00393781146688887,1,15.5,29.9
2.63333333333333,11.9100564578794,26.9160678450984,6.68512966137296,-0.00393483917220117,1,15.5,29.9
2.66666666666667,11.911076280305,27.1388376309861,6.68119815196005,-0.00393150941291509,1,15.5,29.9
2.7,11.9120591403349,27.3614765915048,6.67727029111181,-0.00392786084824159,1,15.5,29.9
2.73333333333333,11.9130053539456,27.5839848456275,6.67334636173291,-0.0039239293788933,1,15.5,29.9
2.76666666666667,11.9139151982729,27.8063625216306,6.66942660533608,-0.00391975639683206,1,15.5,29.9
2.8,11.9147888940452,28.0286097570596,6.66551136713969,-0.00391523819638984,1,15.5,29.9
2.83333333333333,11.9156266060093,28.2507267039202,6.66160110388859,-0.00391026325110033,1,15.5,29.9
2.86666666666667,11.9164284539881,28.4727135282762,6.6576961711133,-0.00390493277528847,1,15.5,29.9
2.9,11.9171945277911,28.6945704048087,6.65379669830815,-0.00389947280514846,1,15.5,29.9
2.93333333333333,11.9179249009121,28.9162975082749,6.64990257320604,-0.00389412510211518,1,15.5,29.9
2.96666666666667,11.9186196401781,29.1378950073141,6.64601354738937,-0.0038890258166715,1,15.5,29.9
3,11.9192788105762,29.3593630595453,6.6421291830267,-0.00388436436266471,1,15.5,29.9
3.03333333333333,11.9199032806894,29.5807017996351,6.63824860607284,-0.00388057695386124,1,15.5,29.9
3.06666666666667,11.9204965593245,29.8019113129393,6.634370057984,-0.00387854808883947,1,15.5,29.9
3.1,11.9210614858943,30.022991607099,6.63049036792185,-0.00387969006215449,1,15.5,29.9
3.13333333333333,11.9215995803714,30.24394256333,6.6266049363093,-0.0038854316125434,1,15.5,29.9
3.16666666666667,11.9221114080572,30.4647639084658,6.62270972872438,-0.00389520758492701,1,15.5,29.9
3.2,11.9225976851896,30.6854553230054,6.61880612846819,-0.00390360025618985,1,15.5,29.9
3.23333333333333,11.9230612964136,30.9060165628479,6.6148967117223,-0.00390941674588863,1,15.5,29.9
3.26666666666667,11.923504352595,31.1264474613395,6.61098339580766,-0.00391331591464272,1,15.5,29.9
3.3,11.9239276888582,31.3467479090812,6.60706754642326,-0.00391584938439316,1,15.5,29.9
3.33333333333333,11.9243312664914,31.5669178395848,6.60315043594938,-0.00391711047388021,1,15.5,29.9
3.36666666666667,11.9247145194947,31.7869572483791,6.59923463738763,-0.0039157985617484,1,15.5,29.9
3.4,11.9250766208973,32.0068662405323,6.59532400273608,-0.00391063465154939,1,15.5,29.9
3.43333333333333,11.9254166670955,32.226645059404,6.59142286060405,-0.00390114213203052,1,15.5,29.9
3.46666666666667,11.9257337926492,32.4462940907418,6.58753535876465,-0.00388750183940623,1,15.5,29.9
3.5,11.926027233776,32.6658138511735,6.58366521949429,-0.00387013927035706,1,15.5,29.9
3.53333333333333,11.9262963583865,32.8852049721291,6.5798155932379,-0.00384962625638696,1,15.5,29.9
3.56666666666667,11.9265406765199,33.1044681781375,6.57598894211204,-0.00382665112586622,1,15.5,29.9
3.6,11.9267598399424,33.3236042648084,6.57218709409299,-0.0038018480190436,1,15.5,29.9
3.63333333333333,11.9269536351646,33.5426140777378,6.56841122570232,-0.0037758683906759,1,15.5,29.9
3.66666666666667,11.9271219711937,33.7614984903112,6.56466184284459,-0.00374938285772952,1,15.5,29.9
3.7,11.9272648621656,33.9802583822286,6.5609388390388,-0.00372300380578761,1,15.5,29.9
3.73333333333333,11.9273824052024,34.1988946209645,6.55724161259452,-0.00369722644428183,1,15.5,29.9
3.76666666666667,11.9274747547842,34.4174080470316,6.55356915150817,-0.00367246108634856,1,15.5,29.9
3.8,11.9275420965439,34.6358000406573,6.55002089608766,-0.00354825542051262,1,15.5,29.9
3.83333333333333,11.9275846394698,34.8540902992846,6.54777023156601,-0.00225066452164491,1,15.5,29.9
3.86666666666667,11.9276026208001,35.0723528394453,6.54857809764946,0.000807866083443187,1,15.5,29.9
3.9,11.9275962587369,35.2907029033642,6.55302747918498,0.00444938153551977,1,15.5,29.9
3.93333333333333,11.9275656980761,35.5092598583801,6.56093969597737,0.0079122167923904,1,15.5,29.9
3.96666666666667,11.9275109937693,35.7281333210835,6.57194977652036,0.0110100805429925,1,15.5,29.9
4,11.9274321134473,35.9474192476282,6.58560657589912,0.0136567993787562,1,15.5,29.9
4.03333333333333,11.9273289483511,36.1671977942626,6.60143205268629,0.0158254767871764,1,15.5,29.9
4.06666666666667,11.927202130273,36.3875340332279,6.61900360499123,0.0175715523049362,1,15.5,29.9
4.1,11.9270548844892,36.6084799759673,6.63795990914799,0.0189563041567657,4,15.5,29.9
4.13333333333333,11.9268905244188,36.8300765799591,6.65799916282922,0.0200392536812242,4,15.5,29.9
4.16666666666667,11.9267151377633,37.0523559125152,6.67889289086432,0.020893728035098,4,15.5,29.9
4.2,11.926539229074,37.2753436729404,6.70048282343492,0.0215899325706008,4,15.5,29.9
4.23333333333333,11.9263736892003,37.4990610487785,6.72265141219547,0.0221685887605556,4,15.5,29.9
4.26666666666667,11.926229360488,37.7235255185342,6.74528974354857,0.0226383313530985,4,15.5,29.9
4.3,11.9261185216177,37.9487511141818,6.76830516766014,0.0230154241115708,4,15.5,29.9
4.33333333333333,11.9260516874301,38.1747492811343,6.79163409591637,0.0233289282562303,4,15.5,29.9
4.36666666666667,11.9260365293031,38.4015296531106,6.81523000529272,0.0235959093763443,4,15.5,29.9
4.4,11.9260757589568,38.6291004633043,6.83905349757963,0.0238234922869109,4,15.5,29.9
4.43333333333333,11.9261682749516,38.8574684795529,6.86305375456551,0.0240002569858779,4,15.5,29.9
4.46666666666667,11.9263108549944,39.0866387142107,6.88718129734159,0.0241275427760836,4,15.5,29.9
4.5,11.9264993589448,39.3166148439849,6.91140582538288,0.0242245280412892,4,15.5,29.9
