Time,x_ego,y_ego,velocity,acceleration,action,x_ped,y_ped
0,11.8,8.9,5,0,1,15.5,29.9
0.0333333333333333,11.8000012359285,9.06660768884137,4.99642261549726,-0.00357738450274336,1,15.4972222222222,29.9
0.0666666666666667,11.8000091647636,9.23309265309115,4.99264758115648,-0.00377503434077475,1,15.4888888888889,29.9
0.1,11.8000285015529,9.39944929670377,4.98873135070069,-0.00391623045579603,1,15.475,29.9
0.133333333333333,11.8000619628775,9.56567362349595,4.98471438031102,-0.00401697038966642,1,15.4555555555556,29.9
0.166666666666667,11.80011061235,9.73176278384981,4.98062565599594,-0.00408872431507667,1,15.4305555555556,29.9
0.2,11.8001742846702,9.89771474993846,4.97648594514145,-0.00413971085449116,1,15.4,29.9
0.233333333333333,11.8002519995685,10.0635280830554,4.97231012923249,-0.00417581590896265,1,15.3666666666667,29.9
0.266666666666667,11.8003423126467,10.2292017669036,4.96810887498688,-0.00420125424560513,1,15.3333333333333,29.9
0.3,11.8004435827361,10.3947350881023,4.96388983024898,-0.00421904473790402,1,15.3,29.9
0.333333333333333,11.8005541592868,10.560127550498,4.95965847954507,-0.0042313507039129,1,15.2666666666667,29.9
0.366666666666667,11.8006725063224,10.7253788136899,4.95541875644411,-0.00423972310095255,1,15.2333333333333,29.9
0.4,11.8007972825818,10.890488648913,4.95117348222252,-0.00424527422159304,1,15.2,29.9
0.433333333333333,11.8009273936059,11.0554569073749,4.94692468033479,-0.00424880188772825,1,15.1666666666667,29.9
0.466666666666667,11.8010620245175,11.2202834975333,4.94267380192691,-0.00425087840788407,1,15.1333333333333,29.9
0.5,11.8012006555401,11.3849683687973,4.9384218875442,-0.00425191438271266,1,15.1,29.9
0.533333333333333,11.8013430582358,11.5495114998433,4.93416968306233,-0.00425220448186714,1,15.0666666666667,29.9
0.566666666666667,11.8014892698651,11.7139128902514,4.92991772280411,-0.00425196025822139,1,15.0333333333333,29.9
0.6,11.801639545704,11.8781725545263,4.92566638916354,-0.00425133364056673,1,15,29.9
0.633333333333333,11.8017942932264,12.0422905178343,4.9214159554208,-0.00425043374273848,1,14.9666666666667,29.9
0.666666666666667,11.8019539960729,12.2062668129702,4.91716661652183,-0.00424933889896906,1,14.9333333333333,29.9
0.7,11.8021191382498,12.3701014782052,4.91291851122723,-0.00424810529459929,1,14.9,29.9
0.733333333333333,11.8022901392122,12.5337945557603,4.90867173806515,-0.00424677316208744,1,14.8666666666667,29.9
0.766666666666667,11.802467308321,12.6973460907222,4.90442636683593,-0.00424537122922075,1,14.8333333333333,29.9
0.8,11.8026508232451,12.8607561302668,4.90018244692107,-0.00424391991485251,1,14.8,29.9
0.833333333333333,11.8028407322454,13.0240247230954,4.8959400132838,-0.00424243363727239,1,14.7666666666667,29.9
0.866666666666667,11.8030369760407,13.1871519190191,4.89169909078075,-0.00424092250305375,1,14.7333333333333,29.9
0.9,11.8032394220401,13.350137768645,4.88745969721819,-0.00423939356255776,1,14.7,29.9
0.933333333333333,11.8034479026141,13.5129823231388,4.8832218454683,-0.00423785174988822,1,14.6666666666667,29.9
0.966666666666667,11.8036622497956,13.6756856340439,4.87898554489258,-0.00423630057571867,1,14.6333333333333,29.9
1,11.8038823209265,13.8382477531471,4.87475080227716,-0.00423474261542189,1,14.6,29.9
1.03333333333333,11.8041086160223,14.0006687317541,4.87051764142447,-0.00423316085269043,1,14.5666666666667,29.9
1.06666666666667,11.8043443165181,14.1629486183156,4.8662860966963,-0.00423154472816822,1,14.5333333333333,29.9
1.1,11.8045942502699,14.3250874590101,4.86205617710441,-0.00422991959189112,1,14.5,29.9
1.13333333333333,11.8048619621284,14.4870853006722,4.85782786796247,-0.00422830914194527,1,14.4666666666667,29.9
1.16666666666667,11.8051492695758,14.6489421914443,4.85360114860003,-0.00422671936243191,1,14.4333333333333,29.9
1.2,11.80545660568,14.8106581806838,4.84937599557583,-0.00422515302420567,1,14.4,29.9
1.23333333333333,11.8057834050822,14.9722333188527,4.84515238834037,-0.00422360723545534,1,14.3666666666667,29.9
1.26666666666667,11.8061284656542,15.1336676573972,4.84093031326445,-0.00422207507591832,1,14.3333333333333,29.9
1.3,11.8064902486331,15.2949612486042,4.83670976468446,-0.00422054857999488,1,14.3,29.9
1.33333333333333,11.8068671057375,15.4561141454247,4.83249074358554,-0.00421902109891548,1,14.2666666666667,29.9
1.36666666666667,11.8072574392253,15.6171264012643,4.82827325524561,-0.00421748833993529,1,14.2333333333333,29.9
1.4,11.8076598092113,15.7779980697543,4.82405730694693,-0.00421594829868344,1,14.2,29.9
1.43333333333333,11.8080730033143,15.9387292045219,4.81984290630713,-0.00421440063979261,1,14.1666666666667,29.9
1.46666666666667,11.8084960797192,16.0993198589764,4.81563006030169,-0.00421284600543803,1,14.1333333333333,29.9
1.5,11.8089283891909,16.2597700861321,4.81141877480066,-0.00421128550103234,1,14.1,29.9
1.53333333333333,11.8093695770733,16.420079938483,4.8072090543963,-0.00420972040436141,1,14.0666666666667,29.9
1.56666666666667,11.8098195643179,16.5802494679407,4.80300090235958,-0.00420815203671765,1,14.0333333333333,29.9
1.6,11.8102773470778,16.7402787283801,4.79879425163259,-0.00420665072698867,1,14,29.9
1.63333333333333,11.8107375522763,16.9001677837178,4.79458905029582,-0.00420520133677371,1,13.9666666666667,29.9
1.66666666666667,11.8111936373215,17.0599167018132,4.79038535951637,-0.00420369077945093,1,13.9333333333333,29.9
1.7,11.8116412844911,17.2195255464649,4.78618325449647,-0.00420210501990326,1,13.9,29.9
1.73333333333333,11.8120786237135,17.3789943759447,4.78198276883738,-0.0042004856590907,1,13.8666666666667,29.9
1.76666666666667,11.8125056519561,17.5383232437187,4.7777839037309,-0.00419886510647682,1,13.8333333333333,29.9
1.8,11.8129236299599,17.6975121996572,4.77358664405831,-0.00419725967258966,1,13.8,29.9
1.83333333333333,11.8133345510387,17.8565612913555,4.76939097152854,-0.00419567252976538,1,13.7666666666667,29.9
1.86666666666667,11.8137406566361,18.015441499612,4.76345295971205,-0.00593801181649312,1,13.7333333333333,29.9
1.9,11.8141437212765,18.1739218037566,4.74539659035422,-0.0180563693578275,3,13.7,29.9
1.93333333333333,11.8145442220764,18.3313101709435,4.69793728813679,-0.0474593022174377,3,13.6666666666667,29.9
1.96666666666667,11.8149417023243,18.4866552867544,4.62280246252443,-0.0751348256123521,3,13.6333333333333,29.9
2,11.8153358937648,18.6392367438349,4.53211890309672,-0.0906835594277178,3,13.6,29.9
2.03333333333333,11.8157268874423,18.7886515135055,4.43280265430218,-0.0993162487945369,3,13.5666666666667,29.9
2.06666666666667,11.8161145442843,18.9345832054136,4.32313633417253,-0.109666320129654,3,13.5333333333333,29.9
2.1,11.8164986395476,19.0768598171699,4.21350074230842,-0.109635591864103,3,13.5,29.9
2.13333333333333,11.8168789595928,19.2154823992126,4.10389849342791,-0.109602248880512,3,13.4666666666667,29.9
2.16666666666667,11.8172549965436,19.3504811409876,3.99607513593235,-0.107823357495562,3,13.4333333333333,29.9
2.2,11.8176260304126,19.4819149804266,3.89000948578777,-0.106065650144578,3,13.4,29.9
2.23333333333333,11.8179910895933,19.6098138144211,3.78397942071064,-0.106030065077134,3,13.3666666666667,29.9
2.26666666666667,11.8183491479324,19.7342075547428,3.67970695120224,-0.104272469508395,3,13.3333333333333,29.9
2.3,11.8186993215781,19.8551551839432,3.57721351872219,-0.102493432480056,3,13.3,29.9
2.33333333333333,11.8190408971388,19.9727156798225,3.47647701306125,-0.100736505660933,3,13.2666666666667,29.9
2.36666666666667,11.8193734010981,20.0869476460012,3.37749727816461,-0.098979734896639,3,13.2333333333333,29.9
2.4,11.8196966308029,20.1979100343469,3.28029611536977,-0.0972011627948475,3,13.2,29.9
2.43333333333333,11.8200105630824,20.3056330761734,3.18312967857887,-0.0971664367908982,3,13.1666666666667,29.9
2.46666666666667,11.8203153807326,20.4101466238193,3.08772034809575,-0.0954093304831187,3,13.1333333333333,29.9
2.5,11.8206114787606,20.5115092160462,2.99406806502042,-0.0936522830753295,3,13.1,29.9
2.53333333333333,11.820899387435,20.6098084386305,2.90391639914102,-0.090151665879405,3,13.0666666666667,29.9
2.56666666666667,11.8211797014726,20.7051609190054,2.81726444782576,-0.0866519513152593,3,13.0333333333333,29.9
2.6,11.8214529485886,20.7976832546885,2.73411093150298,-0.0831535163227746,3,13,29.9
2.63333333333333,11.8217194016623,20.8874342413578,2.65098823083104,-0.0831227006719417,3,12.9666666666667,29.9
2.66666666666667,11.8219792322275,20.9744722836972,2.57133935938142,-0.079648871449622,3,12.9333333333333,29.9
2.7,11.8222326076055,21.0588848247813,2.49346252820274,-0.0778768311786742,3,12.9,29.9
2.73333333333333,11.8224799370102,21.1407592782189,2.41905689860697,-0.0744056295957769,3,12.8666666666667,29.9
2.76666666666667,11.8227234348971,21.22035596628,2.35679748616072,-0.0622594124462488,3,12.8333333333333,29.9
2.8,11.8229668547879,21.2980506923879,2.30493850866602,-0.0518589774946956,3,12.8,29.9
2.83333333333333,11.8232139699388,21.3740749442094,2.25656752044404,-0.0483709882219774,3,12.7666666666667,29.9
2.86666666666667,11.8234677941781,21.4486315888552,2.21690757663974,-0.0396599438043066,3,12.7333333333333,29.9
2.9,11.8237311705446,21.521957797957,2.18278783763548,-0.0341197390042542,3,12.7,29.9
2.93333333333333,11.824005428573,21.5941560687888,2.14927813975335,-0.0335096978821339,3,12.6666666666667,29.9
2.96666666666667,11.8242904018312,21.6652517269024,2.11668781616426,-0.0325903235890941,3,12.6333333333333,29.9
3,11.824584893763,21.7352802169243,2.08526201760092,-0.0314257985633404,3,12.6,29.9
3.03333333333333,11.8248869277149,21.8042808486154,2.05501464563955,-0.030247371961369,3,12.5666666666667,29.9
3.06666666666667,11.8251940219058,21.8722921825913,2.02589182779286,-0.0291228178466847,3,12.5333333333333,29.9
3.1,11.8255033762437,21.9393216585269,1.99609750002221,-0.0297943277706478,3,12.5,29.9
3.13333333333333,11.8258124056492,22.0054330532156,1.97079404907569,-0.0253034509465284,3,12.4666666666667,29.9
3.16666666666667,11.8261187727185,22.0706880548308,1.94469487289067,-0.0260991761850144,3,12.4333333333333,29.9
3.2,11.8264206537473,22.135173464858,1.92459953825575,-0.0200953346349197,3,12.4,29.9
3.23333333333333,11.8267168567282,22.1990587209012,1.90866955143375,-0.0159299868219986,2,12.3666666666667,29.9
3.26666666666667,11.8270058259618,22.2624814631298,1.89683005542142,-0.0118394960123374,2,12.3333333333333,29.9
3.3,11.8272856108984,22.3255763749153,1.88898107748173,-0.00784897793968131,2,12.3,29.9
3.33333333333333,11.8275537489987,22.3884744894592,1.88500327402289,-0.00397780345884113,2,12.2666666666667,29.9
3.36666666666667,11.8278087562246,22.451303621896,1.88482318086756,-0.000180093155337291,2,12.2333333333333,29.9
3.4,11.828050290591,22.5141310661298,1.88488537234522,6.21914776604005e-05,2,12.2,29.9
3.43333333333333,11.8282788420173,22.5769636833058,1.88512078909264,0.000235416747425221,2,12.1666666666667,29.9
3.46666666666667,11.8284952274888,22.6398063534178,1.88547878177359,0.000357992680948493,2,12.1333333333333,29.9
3.5,11.8287010868179,22.7026915510354,1.88766409729377,0.00218531552017609,2,12.1,29.9
3.53333333333333,11.8288985195614,22.7656504897352,1.88989631644877,0.00223221915500726,2,12.0666666666667,29.9
3.56666666666667,11.8290890738293,22.8286842320245,1.89214732770652,0.00225101125774541,2,12.0333333333333,29.9
3.6,11.8292736055867,22.8917930453847,1.89439692663806,0.00224959893154164,2,12,29.9
3.63333333333333,11.8294522409258,22.9549766289106,1.89663071376783,0.00223378712976841,2,11.9666666666667,29.9
3.66666666666667,11.8296245243756,23.0182052296176,1.8970966099069,0.000465896139070665,2,11.9333333333333,29.9
3.7,11.8297902763236,23.0814490018949,1.89754055187469,0.000443941967788186,2,11.9,29.9
3.73333333333333,11.8299500055415,23.1447072706646,1.89796577347189,0.000425221597203151,2,11.8666666666667,29.9
3.76666666666667,11.8301054742967,23.2079507653357,1.89665459611228,-0.00131117735961506,2,11.8333333333333,29.9
3.8,11.8302601260269,23.2711214263163,1.89359825191283,-0.00305634419944179,2,11.8,29.9
3.83333333333333,11.830418120923,23.3341904472,1.89055941207433,-0.00303883983850173,2,11.7666666666667,29.9
3.86666666666667,11.8305829747321,23.3971299810549,1.8858330867686,-0.00472632530573702,2,11.7333333333333,29.9
3.9,11.8307571151802,23.4598841182778,1.87944128741304,-0.00639179935555245,2,11.7,29.9
3.93333333333333,11.8309419668638,23.5224264625412,1.87313142417106,-0.00630986324198157,2,11.6666666666667,29.9
3.96666666666667,11.8311378746236,23.5847310047047,1.86517769572919,-0.00795372844186981,2,11.6333333333333,29.9
4,11.8313441191756,23.646743525149,1.85561503750287,-0.00956265822631686,2,11.6,29.9
4.03333333333333,11.8315591768709,23.7084106746499,1.84446188969354,-0.0111531478093374,2,11.5666666666667,29.9
4.06666666666667,11.8317810153912,23.7697087117881,1.83347756889914,-0.0109843207943983,2,11.5333333333333,29.9
4.1,11.8320073142477,23.8306439396548,1.82269927883543,-0.0107782900637057,2,11.5,29.9
4.13333333333333,11.8322354919521,23.8911944281745,1.8103938454804,-0.0123054333550301,2,11.4666666666667,29.9
4.16666666666667,11.8324629998012,23.9513383593047,1.79830602294504,-0.0120878225353647,2,11.4333333333333,29.9
4.2,11.8326874033863,24.0110256111334,1.78299360021199,-0.0153124227330512,2,11.4,29.9
4.23333333333333,11.8329064286944,24.0701485481074,1.76444965196342,-0.0185439482485656,3,11.3666666666667,29.9
4.26666666666667,11.8331182574625,24.1285998998206,1.74270259784186,-0.0217470541215625,3,11.3333333333333,29.9
4.3,11.8333214002817,24.1862161448367,1.71435035188492,-0.0283522459569359,3,11.3,29.9
4.33333333333333,11.8335145232102,24.2427204012132,1.67599607948697,-0.0383542723979577,3,11.2666666666667,29.9
4.36666666666667,11.8336966168369,24.2977805909671,1.62772565291506,-0.0482704265719052,3,11.2333333333333,29.9
4.4,11.8338672282059,24.3510978937037,1.57144740909318,-0.0562782438218843,3,11.2,29.9
4.43333333333333,11.8340266577336,24.4024939923113,1.51247102909243,-0.0589763800007488,3,11.1666666666667,29.9
4.46666666666667,11.8341759385876,24.4519383438696,1.45435518980534,-0.0581158392870831,3,11.1333333333333,29.9
4.5,11.8343164330565,24.4994608712283,1.39717246465481,-0.0571827251505332,3,11.1,29.9
4.53333333333333,11.8344493445762,24.545035963325,1.33752046552832,-0.0596519991264941,3,11.0666666666667,29.9
4.56666666666667,11.834575533527,24.5885535589862,1.27372957792262,-0.0637908876056932,3,11.0333333333333,29.9
4.6,11.8346957284654,24.6299049670367,1.20755750534346,-0.0661720725791628,3,11,29.9
4.63333333333333,11.8348107585375,24.6690693198135,1.14251511819916,-0.0650423871443009,3,10.9666666666667,29.9
4.66666666666667,11.8349214308983,24.7060850211254,1.07865007918488,-0.0638650390142843,3,10.9333333333333,29.9
4.7,11.8350283364371,24.7409926986832,1.01605110515866,-0.0625989740262127,3,10.9,29.9
4.73333333333333,11.8351318620916,24.7738361000925,0.954805382350067,-0.0612457228085959,3,10.8666666666667,29.9
4.76666666666667,11.8352322097615,24.8046614101702,0.894972244043602,-0.059833138306465,3,10.8333333333333,29.9
4.8,11.8353294214275,24.833516099584,0.836556626515758,-0.0584156175278439,3,10.8,29.9
4.83333333333333,11.8354234029762,24.8604461439027,0.779476389413474,-0.0570802371022838,3,10.7666666666667,29.9
4.86666666666667,11.8355140488443,24.8855237867694,0.725398045581777,-0.0540783438316973,3,10.7333333333333,29.9
4.9,11.8356012743263,24.9088475694135,0.674232215166125,-0.0511658304156523,3,10.7,29.9
4.93333333333333,11.83568495144,24.9305140223948,0.625955229767745,-0.04827698539838,3,10.6666666666667,29.9
4.96666666666667,11.8357648428469,24.950590300073,0.578824457080964,-0.0471307726867803,3,10.6333333333333,29.9
5,11.8358406226286,24.9691146214365,0.532841198191604,-0.0459832588893604,3,10.6,29.9
5.03333333333333,11.8359120812301,24.9861537868179,0.489718279464352,-0.0431229187272523,3,10.5666666666667,29.9
5.06666666666667,11.8359791353738,25.001802742386,0.449430794813047,-0.0402874846513042,3,10.5333333333333,29.9
5.1,11.8360416536565,25.0161266361386,0.410213207410467,-0.03921758740258,3,10.5,29.9
5.13333333333333,11.8360995990947,25.0291891354148,0.37374342168852,-0.0364697857219476,3,10.4666666666667,29.9
5.16666666666667,11.8361531440696,25.0410803484134,0.339931263362762,-0.0338121583257578,3,10.4333333333333,29.9
5.2,11.8362025489226,25.051887795343,0.308710783983677,-0.031220479379085,3,10.4,29.9
5.23333333333333,11.8362480276971,25.0616681611156,0.278298275393319,-0.0304125085903578,3,10.3666666666667,29.9
5.26666666666667,11.836289787793,25.0704765923016,0.250384523067801,-0.0279137523255186,3,10.3333333333333,29.9
5.3,11.8363281152542,25.0783952065029,0.224896127375728,-0.0254883956920723,3,10.3,29.9
5.33333333333333,11.83636318431,25.0854754899121,0.200078061028394,-0.0248180663473345,3,10.2666666666667,29.9
5.36666666666667,11.8363950652721,25.0917401148606,0.175953669464068,-0.0241243915643261,3,10.2333333333333,29.9
5.4,11.8364239230545,25.0972413014272,0.154264397308517,-0.0216892721555507,3,10.2,29.9
5.43333333333333,11.8364499199736,25.1020315094448,0.133285323350221,-0.0209790739582963,3,10.1666666666667,29.9
5.46666666666667,11.8364731182379,25.1061342217201,0.113005570288373,-0.0202797530618473,3,10.1333333333333,29.9
5.5,11.8364936756683,25.1096015348178,0.0951521428989447,-0.0178534273894286,5,10.1,29.9
5.53333333333333,11.8365117451552,25.1124847629088,0.0779521905609137,-0.017199952338031,5,10.0666666666667,29.9
5.56666666666667,11.836527378496,25.114805158158,0.0613765718151166,-0.0165756187457971,5,10.0333333333333,29.9
5.6,11.8365406265825,25.1165830470966,0.045398780558809,-0.0159777912563076,5,10,29.9
5.63333333333333,11.8365515398777,25.1178379088424,0.0299947655037554,-0.0154040150550536,5,9.96666666666667,29.9
5.66666666666667,11.8365601687762,25.1185884388257,0.0151444187899149,-0.0148503467138405,5,9.93333333333333,29.9
5.7,11.8365665638227,25.118852601555,0.00100083837305654,-0.0141435804168584,5,9.9,29.9
5.73333333333333,11.8365714250187,25.1188366454031,0.000720776865748477,-0.000280061507308065,5,9.86666666666667,29.9
5.76666666666667,11.8365757095164,25.1188206912189,0.000377600047405973,-0.000343176818342504,5,9.83333333333334,29.9
5.8,11.8365757095164,25.1188206912189,0.000155898977472929,-0.000221701069933044,5,9.8,29.9
5.83333333333333,11.8365757095164,25.1188206912189,0.000123376914722044,-3.25220627508852e-05,5,9.76666666666667,29.9
5.86666666666667,11.8365757095164,25.1188206912189,0.000434158316483562,0.000310781401761519,5,9.73333333333333,29.9
5.9,11.8365757095164,25.1188206912189,0.000748180486567231,0.000314022170083668,5,9.7,29.9
5.93333333333333,11.8365757095164,25.1188206912189,0.00103798299644473,0.000289802509877495,5,9.66666666666667,29.9
5.96666666666667,11.8365757095164,25.1188206912189,0.00127942123827682,0.000241438241832099,5,9.63333333333333,29.9
6,11.8365757095164,25.1188206912189,0.00145355653418126,0.000174135295904435,5,9.6,29.9
6.03333333333333,11.8365757095164,25.1188206912189,0.00154786118631405,9.43046521327921e-05,5,9.56666666666667,29.9
6.06666666666667,11.8365757095164,25.1188206912189,0.00155673797999265,8.87679367859453e-06,5,9.53333333333333,29.9
6.1,11.8365757095164,25.1188206912189,0.00148140689511814,-7.53310848745053e-05,5,9.5,29.9
6.13333333333333,11.8365757095164,25.1188206912189,0.00132925279581374,-0.000152154099304395,5,9.46666666666667,29.9
6.16666666666667,11.8365757095164,25.1188206912189,0.00111275560254729,-0.000216497193266456,5,9.43333333333333,29.9
6.2,11.8365757095164,25.1188206912189,0.0008481389700913,-0.000264616632455989,5,9.4,29.9
6.23333333333333,11.8365757095164,25.1188206912189,0.000553875794767625,-0.000294263175323675,5,9.36666666666667,29.9
6.26666666666667,11.8365757095164,25.1188206912189,0.00024918066321292,-0.000304695131554705,5,9.33333333333333,29.9
6.3,11.8365757095164,25.1188206912189,4.73971817691857e-05,-0.000201783481443735,5,9.3,29.9
6.33333333333333,11.8365757095164,25.1188206912189,0.000319189209414577,0.000271792027645391,5,9.26666666666667,29.9
