Time,x_ego,y_ego,velocity,acceleration,action,x_ped,y_ped
0,11.8,15.9,7,0,1,15.5,29.9
0.0333333333333333,11.8000000422184,16.1332703793943,6.9961557795309,-0.00384422046910426,1,15.5,29.9
0.0666666666666667,11.8000003063789,16.3664065988112,6.9919694711032,-0.00418630842769119,1,15.5,29.9
0.1,11.8000009354545,16.5994007552789,6.98769498722316,-0.00427448388004059,1,15.5,29.9
0.133333333333333,11.8000020035846,16.8322537852831,6.98349765460551,-0.00419733261765476,1,15.5,29.9
0.166666666666667,11.8000035366246,17.064967880227,6.9793558546791,-0.00414179992640928,1,15.5,29.9
0.2,11.8000055305597,17.2975446186558,6.97525409506347,-0.00410175961562942,1,15.5,29.9
0.233333333333333,11.8000079656103,17.5299851399299,6.97118127338087,-0.00407282168260359,1,15.5,29.9
0.266666666666667,11.800010815564,17.7622902686797,6.96712943315387,-0.00405184022699778,1,15.5,29.9
0.3,11.8000140530088,17.9944606039925,6.9630928723517,-0.00403656080217019,1,15.5,29.9
0.333333333333333,11.8000176516914,18.226496583325,6.95906750463011,-0.00402536772158957,1,15.5,29.9
0.366666666666667,11.8000215872873,18.4583985283027,6.95505040161357,-0.00401710301654301,1,15.5,29.9
0.4,11.8000258376009,18.6901666775418,6.95103946486793,-0.00401093674563224,1,15.5,29.9
0.433333333333333,11.8000303828052,18.9218012101684,6.94703319077485,-0.00400627409308729,1,15.5,29.9
0.466666666666667,11.8000352059248,19.1533022626737,6.94303050196482,-0.00400268881002308,1,15.5,29.9
0.5,11.8000402934734,19.3846699409918,6.93903062645415,-0.00399987551067227,1,15.5,29.9
0.533333333333333,11.8000456360088,19.6159043291556,6.93503301099136,-0.00399761546278654,1,15.5,29.9
0.566666666666667,11.8000512283677,19.847005495499,6.93103725895163,-0.00399575203973868,1,15.5,29.9
0.6,11.8000570694349,20.077973497102,6.92704308585343,-0.00399417309819405,1,15.5,29.9
0.633333333333333,11.8000631614386,20.3088083829757,6.92305028752491,-0.00399279832852351,1,15.5,29.9
0.666666666666667,11.8000695088921,20.5395101963452,6.91905871734219,-0.00399157018271445,1,15.5,29.9
0.7,11.8000761173802,20.7700789762852,6.91506826996265,-0.00399044737954402,1,15.5,29.9
0.733333333333333,11.8000829924128,21.0005147588923,6.91107886969615,-0.00398940026649619,1,15.5,29.9
0.766666666666667,11.8000901385271,21.2308175781248,6.90709046217961,-0.00398840751654461,1,15.5,29.9
0.8,11.8000975587514,21.460987466405,6.90310300839961,-0.00398745377999887,1,15.5,29.9
0.833333333333333,11.8001052544515,21.6910244550504,6.89911648038458,-0.00398652801503463,1,15.5,29.9
0.866666666666667,11.8001132255067,21.9209285745829,6.89513085808793,-0.00398562229664989,1,15.5,29.9
0.9,11.8001214707052,22.1506998549503,6.89114612712718,-0.00398473096074614,1,15.5,29.9
0.933333333333333,11.8001299466181,22.3803383256863,6.8871622771187,-0.0039838500084759,1,15.5,29.9
0.966666666666667,11.800137641907,22.6098440160528,6.88317930047381,-0.00398297664488911,1,15.5,29.9
1,11.8001384533199,22.8392169552373,6.87919720344451,-0.00398209702930874,1,15.5,29.9
1.03333333333333,11.8001183526388,23.0684571722491,6.8752160420562,-0.00398116138830762,1,15.5,29.9
1.06666666666667,11.80006327748,23.2975646947048,6.87123589628852,-0.0039801457676818,1,15.5,29.9
1.1,11.799962222143,23.5265395472547,6.86725679201512,-0.00397910427339543,1,15.5,29.9
1.13333333333333,11.7998096125378,23.7553817508401,6.86327866142368,-0.00397813059143903,1,15.5,29.9
1.16666666666667,11.7996041923014,23.9840913235022,6.8593014020751,-0.0039772593485834,1,15.5,29.9
1.2,11.7993472875934,24.21266828206,6.85532492962128,-0.00397647245381805,1,15.5,29.9
1.23333333333333,11.7990415353467,24.4411126437909,6.85134920005883,-0.00397572956244652,1,15.5,29.9
1.26666666666667,11.7986900700389,24.6694244275815,6.84737420592931,-0.00397499412951952,1,15.5,29.9
1.3,11.7982960751987,24.8976036544287,6.84339996145577,-0.00397424447354933,1,15.5,29.9
1.33333333333333,11.7978625731635,25.1256503474263,6.83942648832943,-0.00397347312633656,1,15.5,29.9
1.36666666666667,11.7973931215944,25.3535645323484,6.83545374365959,-0.00397274466984232,1,15.5,29.9
1.4,11.7968935455807,25.5813462433416,6.83148209841826,-0.00397164524133053,1,15.5,29.9
1.43333333333333,11.796369475646,25.8089955540252,6.82751348208679,-0.0039686163314645,1,15.5,29.9
1.46666666666667,11.7958283315014,26.0365126303252,6.82355104047374,-0.00396244161305059,1,15.5,29.9
1.5,11.7952780156845,26.2638977566907,6.81959844884886,-0.00395259162487704,1,15.5,29.9
1.53333333333333,11.7947233502932,26.4911513334743,6.81565928292053,-0.0039391659283341,1,15.5,29.9
1.56666666666667,11.7941661351349,26.7182738644037,6.811736524398,-0.00392275852252943,1,15.5,29.9
1.6,11.793606118981,26.9452659342333,6.80783235950935,-0.00390416488864709,1,15.5,29.9
1.63333333333333,11.7930418271471,27.172128186626,6.80394835892752,-0.00388400058183525,1,15.5,29.9
1.66666666666667,11.7924711936339,27.3988613078869,6.80008560974592,-0.00386274918159746,1,15.5,29.9
1.7,11.7918919976348,27.6254660121005,6.7962447263376,-0.00384088340831568,1,15.5,29.9
1.73333333333333,11.7913021346708,27.851943025642,6.79242582909212,-0.00381889724548223,1,15.5,29.9
1.76666666666667,11.7906997647073,28.0782930727176,6.78862868457205,-0.00379714452007374,1,15.5,29.9
1.8,11.790084199397,28.3045168688732,6.78485283750551,-0.00377584706654321,1,15.5,29.9
1.83333333333333,11.7894585648345,28.5306151218099,6.78109766196501,-0.00375517554049143,1,15.5,29.9
1.86666666666667,11.7888281828643,28.7565885230698,6.77736242332962,-0.00373523863539305,1,15.5,29.9
1.9,11.7881966887417,28.9824377324843,6.77364618447064,-0.00371623885898309,1,15.5,29.9
1.93333333333333,11.7875657630335,29.2081633678399,6.76994767144494,-0.00369851302569835,1,15.5,29.9
1.96666666666667,11.7869358013515,29.4337659954096,6.76626530417239,-0.00368236727254523,1,15.5,29.9
2,11.7863064713736,29.6592461240039,6.76259736568944,-0.00366793848295277,1,15.5,29.9
2.03333333333333,11.7856771048738,29.8846042034492,6.75894208900699,-0.00365527668244781,1,15.5,29.9
2.06666666666667,11.785046150968,30.1098406208044,6.75529761364781,-0.00364447535918,1,15.5,29.9
2.1,11.7844095134017,30.3349556906931,6.75166183193766,-0.00363578171015888,1,15.5,29.9
2.13333333333333,11.7837637770676,30.5599496472014,6.74803182353913,-0.00363000839852123,1,15.5,29.9
2.16666666666667,11.7831068218175,30.7848226158735,6.74440390209427,-0.00362792144486068,1,15.5,29.9
2.2,11.7824374628566,31.0095745980729,6.74077422886723,-0.00362967322704044,1,15.5,29.9
2.23333333333333,11.7817551353323,31.2342054706041,6.73713909460727,-0.00363513425996764,1,15.5,29.9
2.26666666666667,11.7810604403034,31.458714993445,6.73349498626241,-0.0036441083448544,1,15.5,29.9
2.3,11.780356769087,31.6831028217596,6.72983860360521,-0.00365638265719781,1,15.5,29.9
2.33333333333333,11.7796470439483,31.9073685027397,6.72616681141113,-0.00367179219408076,1,15.5,29.9
2.36666666666667,11.7789338807253,32.1315114793603,6.72247651648259,-0.00369029492854622,1,15.5,29.9
2.4,11.7782217727448,32.3555310974385,6.71876461416758,-0.00371190231500851,1,15.5,29.9
2.43333333333333,11.777514075973,32.5794265943971,6.71502789796439,-0.00373671620318472,1,15.5,29.9
2.46666666666667,11.7768126642038,32.8031970925105,6.71126293839679,-0.00376495956760259,1,15.5,29.9
2.5,11.7761182561825,33.0268415908547,6.70746597796493,-0.00379696043186328,1,15.5,29.9
2.53333333333333,11.7754307789223,33.2503589562306,6.70363343503252,-0.00383254293241109,1,15.5,29.9
2.56666666666667,11.7747496691026,33.4737480488065,6.69977009582796,-0.00386333920455506,1,15.5,29.9
2.6,11.7740740773181,33.6970079921466,6.69588477561072,-0.00388532021724242,1,15.5,29.9
2.63333333333333,11.7734030044936,33.9201381641391,6.6919839387446,-0.00390083686611398,1,15.5,29.9
2.66666666666667,11.7727353984878,34.1431381258289,6.68807221797761,-0.00391172076699497,1,15.5,29.9
2.7,11.7720702313284,34.366007569712,6.68415293340602,-0.00391928457159363,1,15.5,29.9
2.73333333333333,11.7714065667882,34.588746282708,6.68022846437637,-0.00392446902964227,1,15.5,29.9
2.76666666666667,11.7707436184596,34.8113541196491,6.67630051601216,-0.00392794836421739,1,15.5,29.9
2.8,11.7700807928857,35.033830988288,6.67237073229885,-0.00392978371330877,1,15.5,29.9
2.83333333333333,11.7694177112481,35.2561768652314,6.66844150881729,-0.00392922348156066,1,15.5,29.9
2.86666666666667,11.7687542059596,35.4783918092399,6.66451523775523,-0.00392627106205801,1,15.5,29.9
2.9,11.7680902931017,35.7004759523711,6.66059380551301,-0.00392143224221542,1,15.5,29.9
2.93333333333333,11.7674261262845,35.9224294725737,6.65667791331012,-0.00391589220289035,1,15.5,29.9
2.96666666666667,11.7667619408247,36.1442525395549,6.6527662119955,-0.00391170131462726,1,15.5,29.9
3,11.7660979981814,36.3659452340256,6.64885465912383,-0.00391155287166711,1,15.5,29.9
3.03333333333333,11.7654345392912,36.5875074787066,6.64493886241273,-0.00391579671110076,1,15.5,29.9
3.06666666666667,11.7647717522334,36.8089391305341,6.64101924747454,-0.00391961493818904,1,15.5,29.9
3.1,11.7641097568805,37.0302400853991,6.63709712270364,-0.00392212477089515,1,15.5,29.9
3.13333333333333,11.7634486055732,37.2514102764349,6.63317343398628,-0.00392368871735904,1,15.5,29.9
3.16666666666667,11.7627882955736,37.4724496634227,6.62924885903593,-0.0039245749503527,1,15.5,29.9
3.2,11.7621287879713,37.6933582252456,6.6253238833923,-0.00392497564362859,1,15.5,29.9
3.23333333333333,11.761469987606,37.914135954381,6.62139885485825,-0.00392502853405396,1,15.5,29.9
3.26666666666667,11.7608116683082,38.1347828527738,6.6174740225782,-0.00392483228005247,1,15.5,29.9
3.3,11.7601536492186,38.3552989295658,6.61354956501971,-0.00392445755848314,1,15.5,29.9
3.33333333333333,11.7594958322436,38.5756841992032,6.60962560995961,-0.00392395506010779,1,15.5,29.9
3.36666666666667,11.7588381833875,38.7959386799433,6.60570224884127,-0.00392336111834002,1,15.5,29.9
3.4,11.7581807114318,39.0160623927612,6.60177954707216,-0.00392270176910081,1,15.5,29.9
3.43333333333333,11.7575242885666,39.236055363064,6.59785755179875,-0.00392199527341131,1,15.5,29.9
3.46666666666667,11.7568733170208,39.455917628119,6.59393630191907,-0.00392124987967968,1,15.5,29.9
