Time,x_ego,y_ego,velocity,acceleration,action,x_ped,y_ped
0,11.8,15.9,7,0,1,15.5,29.9
0.0333333333333333,11.7999925696016,16.1332703793739,6.99615580681043,-0.00384419318957363,1,15.5,29.9
0.0666666666666667,11.7999460775571,16.3664065980111,6.99196977234753,-0.00418603446289634,1,15.5,29.9
0.1,11.7998353607492,16.5994007480764,6.9876960160038,-0.00427375634372673,1,15.5,29.9
0.133333333333333,11.7996473706544,16.832253753271,6.98349981062339,-0.00419620538040988,1,15.5,29.9
0.166666666666667,11.7993775566727,17.064967783964,6.9793593072795,-0.00414050334389415,1,15.5,29.9
0.2,11.7990266253692,17.2975443924587,6.97525877171444,-0.00410053556505741,1,15.5,29.9
0.233333333333333,11.7985980578925,17.5299846908931,6.9711869479744,-0.004071823740043,1,15.5,29.9
0.266666666666667,11.7980964675375,17.7622894791944,6.9671358298903,-0.00405111808410297,1,15.5,29.9
0.3,11.7975266787872,17.9944593362281,6.96309973736971,-0.00403609252058335,1,15.5,29.9
0.333333333333333,11.7968883967647,18.2264946772731,6.95907523389382,-0.00402450347589145,1,15.5,29.9
0.366666666666667,11.7961649632946,18.4583957753321,6.95505974863517,-0.0040154852586527,1,15.5,29.9
0.4,11.795343601654,18.6901628117513,6.95105081821903,-0.00400893041614125,1,15.5,29.9
0.433333333333333,11.7944191331218,18.9217959105214,6.9470465894438,-0.00400422877522999,1,15.5,29.9
0.466666666666667,11.793391516223,19.1532951580258,6.94304570143478,-0.00400088800901965,1,15.5,29.9
0.5,11.7922635965861,19.3846606163956,6.93904721676012,-0.00399848467465613,1,15.5,29.9
0.533333333333333,11.7910393649081,19.6158923321504,6.93505054310468,-0.00399667365543799,1,15.5,29.9
0.566666666666667,11.7897236600557,19.8469903444992,6.93105518051305,-0.00399536259163735,1,15.5,29.9
0.6,11.7883251182187,20.0779547038387,6.92706058681138,-0.00399459370166699,1,15.5,29.9
0.633333333333333,11.786858679104,20.3087854926805,6.92306628433277,-0.00399430247860444,1,15.5,29.9
0.666666666666667,11.7853462583091,20.5394828409023,6.9190721108221,-0.00399417351067655,1,15.5,29.9
0.7,11.783814083009,20.7700469220347,6.91507831393579,-0.00399379688630486,1,15.5,29.9
0.733333333333333,11.7822882953702,21.0004779309872,6.91108555330404,-0.00399276063175513,1,15.5,29.9
0.766666666666667,11.7807880005406,21.2307760381113,6.9070943955839,-0.0039911577201357,1,15.5,29.9
0.8,11.7793247409647,21.4609413720709,6.90310504530379,-0.00398935028010872,1,15.5,29.9
0.833333333333333,11.7779028939454,21.6909740133487,6.89911737124934,-0.00398767405444911,1,15.5,29.9
0.866666666666667,11.7765239649735,21.9208740158344,6.89513115115422,-0.00398622009512906,1,15.5,29.9
0.9,11.7751856341098,22.1506414034583,6.89114617995483,-0.00398497119939023,1,15.5,29.9
0.933333333333333,11.7738827690431,22.3802761787517,6.8871622769757,-0.0039839029791251,1,15.5,29.9
0.966666666666667,11.7726088371627,22.6097783337042,6.88317932075339,-0.00398295622230727,1,15.5,29.9
1,11.7713568591411,22.8391478571531,6.87919724442969,-0.00398207632370351,1,15.5,29.9
1.03333333333333,11.7701200499357,23.0683847393585,6.87521601866241,-0.00398122576727999,1,15.5,29.9
1.06666666666667,11.7688922604984,23.2974889746901,6.87123563551406,-0.00398038314834803,1,15.5,29.9
1.1,11.7676682865993,23.5264605631742,6.86725609720532,-0.0039795383087462,1,15.5,29.9
1.13333333333333,11.7664440700304,23.7552995113345,6.86327740929318,-0.00397868791213085,1,15.5,29.9
1.16666666666667,11.7652167928405,23.9840058324961,6.85929957687621,-0.00397783241697613,1,15.5,29.9
1.2,11.7639848592754,24.2125795465759,6.85532260279454,-0.00397697408166753,1,15.5,29.9
1.23333333333333,11.7627477685211,24.4410206793635,6.851346487255,-0.00397611553954302,1,15.5,29.9
1.26666666666667,11.7615058967601,24.6693292613526,6.84737122845651,-0.00397525879848892,1,15.5,29.9
1.3,11.7602602218321,24.8975053262701,6.84339682371345,-0.00397440474305988,1,15.5,29.9
1.33333333333333,11.7590120323216,25.1255489095112,6.83942327052974,-0.00397355318371062,1,15.5,29.9
1.36666666666667,11.7577626625938,25.3534600467042,6.83545056722279,-0.00397270330694433,1,15.5,29.9
1.4,11.7565132866586,25.5812387725893,6.83147871299167,-0.00397185423112845,1,15.5,29.9
1.43333333333333,11.755264789512,25.8088851203158,6.82750770760163,-0.00397100539003148,1,15.5,29.9
1.46666666666667,11.7540177185935,26.036399121177,6.82353755097504,-0.0039701566265915,1,15.5,29.9
1.5,11.7527723039144,26.2637808047183,6.81956824291423,-0.00396930806080853,1,15.5,29.9
1.53333333333333,11.7515285259202,26.4910301991069,6.81559978302709,-0.00396845988714745,1,15.4916666666667,29.9
1.56666666666667,11.7502862064279,26.7181473316278,6.8116321707942,-0.00396761223288244,1,15.4666666666667,29.9
1.6,11.7490450997268,26.9451322291809,6.80766540567224,-0.00396676512196059,1,15.425,29.9
1.63333333333333,11.7478049667059,27.1719849186871,6.80369948715964,-0.0039659185126073,1,15.3752276867031,29.9
1.66666666666667,11.7465656226502,27.3987054273501,6.79973441480839,-0.00396507235124766,1,15.3259107468124,29.9
1.7,11.7453269571032,27.6252937827656,6.7957701882042,-0.00396422660418771,1,15.2770491803279,29.9
1.73333333333333,11.7440889303202,27.8517500129022,6.79180680694339,-0.00396338126080664,1,15.2286429872495,29.9
1.76666666666667,11.7428515544537,28.0780741459989,6.78784427062107,-0.00396253632232479,1,15.1806921675774,29.9
1.8,11.7416148685591,28.3042662104278,6.78388257882976,-0.00396169179130546,1,15.1331967213115,29.9
1.83333333333333,11.7403789562677,28.5303262347908,6.77992173116215,-0.00396084766761273,1,15.0861566484517,29.9
1.86666666666667,11.7391456214938,28.7562542570799,6.77596172874482,-0.00396000241733407,1,15.0395719489982,29.9
1.9,11.7379242654235,28.9820503567489,6.77200259953796,-0.00395912920686037,1,14.9934426229508,29.9
1.93333333333333,11.736733186517,29.2077146612294,6.76804447059371,-0.00395812894424274,1,14.9477686703097,29.9
1.96666666666667,11.7355970816646,29.4332473298478,6.76408764288102,-0.00395682771269446,1,14.9025500910747,29.9
2,11.7345456412407,29.6586485403335,6.76013256523561,-0.00395507764540515,1,14.8577868852459,29.9
2.03333333333333,11.7336066436495,29.883918442701,6.75617949771301,-0.00395306752260183,1,14.8134790528233,29.9
2.06666666666667,11.7327980741923,30.1090571112092,6.75222817586841,-0.00395132184460145,1,14.7696265938069,29.9
2.1,11.7321265587512,30.3340645393762,6.74827797788377,-0.00395019798463814,1,14.7262295081967,29.9
2.13333333333333,11.7315899703182,30.5589406649357,6.74432815737886,-0.00394982050491333,1,14.6832877959927,29.9
2.16666666666667,11.7311782172637,30.7836853905021,6.74037808895237,-0.00395006842649437,1,14.6408014571949,29.9
2.2,11.7308763773002,31.0082986142183,6.73642753730362,-0.00395055164874591,1,14.5987704918033,29.9
2.23333333333333,11.730666830068,31.2327802495712,6.73247643297726,-0.00395110432636336,1,14.5571948998179,29.9
2.26666666666667,11.7305282746645,31.4571302284244,6.72852484554436,-0.00395158743289326,1,14.5160746812386,29.9
2.3,11.7304388534862,31.6813485124938,6.72457337680107,-0.00395146874329466,1,14.4754098360656,29.9
2.33333333333333,11.730383353007,31.9054351042985,6.72062272789806,-0.00395064890300834,1,14.4352003642987,29.9
2.36666666666667,11.7303531242805,32.129390031573,6.71667324511075,-0.00394948278730478,1,14.3954462659381,29.9
2.4,11.7303450434906,32.3532133337327,6.71272514353097,-0.0039481015797822,1,14.3561475409836,29.9
2.43333333333333,11.7303619001669,32.576905055386,6.70877841622746,-0.00394672730351697,1,14.3173041894353,29.9
2.46666666666667,11.7304080012199,32.800465235891,6.7048329011087,-0.00394551511875108,1,14.2789162112933,29.9
2.5,11.7304877947518,33.0238939081622,6.70088847903912,-0.00394442206958079,1,14.2409836065574,29.9
2.53333333333333,11.7306057118005,33.2471910998218,6.69694507108306,-0.00394340795606762,1,14.2035063752277,29.9
2.56666666666667,11.7307644892705,33.4703568332276,6.69300244185587,-0.00394262922718625,1,14.1664845173042,29.9
2.6,11.7309630062769,33.6933911269915,6.68906068713561,-0.00394175472026426,1,14.1299180327869,29.9
2.63333333333333,11.7312069973663,33.9162940025886,6.68512008966436,-0.00394059747124675,1,14.0938069216758,29.9
2.66666666666667,11.7315046253365,34.1390654776664,6.68118052693302,-0.00393956273134233,1,14.0581511839709,29.9
2.7,11.7318591232814,34.3617055650464,6.67724182719269,-0.00393869974032413,1,14.0229508196721,29.9
2.73333333333333,11.7322714278656,34.5842142764876,6.67330395144646,-0.00393787574623072,1,13.9882058287796,29.9
2.76666666666667,11.7327413670269,34.8065916241406,6.66936686768864,-0.00393708375782253,1,13.9539162112933,29.9
2.8,11.7332687632989,35.0288376205133,6.66543065835109,-0.00393620933755301,1,13.9200819672131,29.9
2.83333333333333,11.7338571763468,35.2509522739186,6.66149556645043,-0.00393509190065622,1,13.9200819672131,29.9
2.86666666666667,11.7345121072134,35.4729355865283,6.65756127267851,-0.00393429377192067,1,13.9200819672131,29.9
2.9,11.7352278990105,35.6947875733474,6.65362730259289,-0.00393397008561447,1,13.9200819672131,29.9
2.93333333333333,11.7359949688575,35.916508261858,6.64969373314549,-0.00393356944740209,1,13.9200819672131,29.9
2.96666666666667,11.736806997671,36.1380976815754,6.64576089643874,-0.00393283670675704,1,13.9200819672131,29.9
3,11.737664095975,36.3595558526146,6.64182909499481,-0.00393180144392513,1,13.9200819672131,29.9
3.03333333333333,11.7385721921969,36.5808827802437,6.63789863396703,-0.00393046102777905,1,13.9200819672131,29.9
3.06666666666667,11.7395426663732,36.8020784533526,6.63396985229309,-0.00392878167394439,1,13.9200819672131,29.9
3.1,11.7405867086299,37.0231428639869,6.63004317745073,-0.00392667484235254,1,13.9200819672131,29.9
3.13333333333333,11.7417119453503,37.2440760299212,6.62611932930207,-0.00392384814866098,1,13.9200819672131,29.9
3.16666666666667,11.7429246899743,37.4648779925639,6.62219896987154,-0.00392035943052882,1,13.9200819672131,29.9
3.2,11.7442279726285,37.6855488230112,6.6182825609152,-0.00391640895634371,1,13.9200819672131,29.9
3.23333333333333,11.7456220056441,37.9060886211401,6.61437054005883,-0.00391202085637588,1,13.9200819672131,29.9
3.26666666666667,11.7471053479035,38.1264975135607,6.61046345421399,-0.00390708584483956,1,13.9200819672131,29.9
3.3,11.7486757378614,38.3467756551984,6.60656198560345,-0.00390146861053431,1,13.9200819672131,29.9
3.33333333333333,11.7503306152724,38.5669232291098,6.60266682923399,-0.00389515636946314,1,13.9200819672131,29.9
3.36666666666667,11.7520674064864,38.7869404435682,6.5987786123148,-0.00388821691918473,1,13.9200819672131,29.9
3.4,11.7538836637771,39.0068275278661,6.59489785648609,-0.00388075582871572,1,13.9200819672131,29.9
3.43333333333333,11.7557771364969,39.2265847277897,6.59102498115884,-0.00387287532725278,1,13.9200819672131,29.9
3.46666666666667,11.7577458244329,39.4462123030871,6.58716042327367,-0.00386455788516837,1,13.9200819672131,29.9
