Time,x_ego,y_ego,velocity,acceleration,action,x_ped,y_ped
0,11.8,15.9,5,0,1,15.5,29.9
0.0333333333333333,11.8000012359285,16.0666076888414,4.99642261549726,-0.00357738450274336,1,15.3694444444444,29.9
0.0666666666666667,11.8000091647636,16.2330926530911,4.99264758115648,-0.00377503434077475,1,15.2444444444444,29.9
0.1,11.8000285015529,16.3994492967038,4.98873135070069,-0.00391623045579603,1,15.125,29.9
0.133333333333333,11.8000619628775,16.5656736234959,4.98471438031102,-0.00401697038966642,1,15.0111111111111,29.9
0.166666666666667,11.80011061235,16.7317627838498,4.98062565599594,-0.00408872431507667,1,14.9027777777778,29.9
0.2,11.8001742846702,16.8977147499385,4.97648594514145,-0.00413971085449116,1,14.8,29.9
0.233333333333333,11.8002519995685,17.0635280830554,4.97231012923249,-0.00417581590896265,1,14.7027777777778,29.9
0.266666666666667,11.8003429273753,17.2292017667958,4.9681088963332,-0.00420123289929197,1,14.6111111111111,29.9
0.3,11.8004487259379,17.3947350869692,4.963889932703,-0.00421896363019858,1,14.525,29.9
0.333333333333333,11.8005762924491,17.5601275445283,4.95965890313226,-0.00423102957073596,1,14.4444444444444,29.9
0.366666666666667,11.8007436744298,17.7253787904051,4.95541995213792,-0.00423895099433835,1,14.3694444444444,29.9
0.4,11.8009651916995,17.8904885825382,4.95117591098555,-0.00424404115237831,1,14.3,29.9
0.433333333333333,11.8012481620285,18.0554567550203,4.94692867407741,-0.00424723690813877,1,14.2361111111111,29.9
0.466666666666667,11.8015943359368,18.2202831966124,4.94267946230346,-0.00424921177394388,1,14.1777777777778,29.9
0.5,11.8020015163423,18.3849678367984,4.93842907701044,-0.00425038529302046,1,14.125,29.9
0.533333333333333,11.8024650657303,18.549510636742,4.93417808989472,-0.00425098711572414,1,14.0777777777778,29.9
0.566666666666667,11.8029791332519,18.7139115829669,4.92992695437958,-0.00425113551513601,1,14.0361111111111,29.9
0.6,11.8035375492865,18.8781706823301,4.92567605474438,-0.00425089963520708,1,14,29.9
0.633333333333333,11.8041344168482,19.0422879575773,4.92142571998261,-0.00425033476176395,1,13.9694444444444,29.9
0.666666666666667,11.8047644714529,19.206263443268,4.91717622494873,-0.00424949503388117,1,13.9444444444444,29.9
0.7,11.8054232880013,19.3700971820999,4.91292779131065,-0.00424843363807703,1,13.925,29.9
0.733333333333333,11.8061073961246,19.5337892217249,4.90868059214175,-0.00424719916890481,1,13.9111111111111,29.9
0.766666666666667,11.8068143380307,19.6973396121331,4.90443475924339,-0.00424583289835834,1,13.9027777777778,29.9
0.8,11.807542677444,19.8607484036415,4.90019039100194,-0.00424436824144614,1,13.9,29.9
0.833333333333333,11.8082919527663,20.0240156454961,4.89594755916825,-0.00424283183369756,1,13.9,29.9
0.866666666666667,11.8090621400142,20.1869967836379,4.88303037400237,-0.0129171851658736,1,13.9,29.9
0.9,11.8098529419314,20.3492591756321,4.85282966525767,-0.0302007087447009,3,13.9,29.9
0.933333333333333,11.8106635205158,20.5101399131969,4.80013872455476,-0.052690940702913,3,13.9,29.9
0.966666666666667,11.8114920082604,20.6687455178851,4.71633011209545,-0.0838086124593138,3,13.9,29.9
1,11.8123362174916,20.8244421297177,4.62560766570618,-0.090722446389262,3,13.9,29.9
1.03333333333333,11.8131931493513,20.9771436072752,4.53663019148038,-0.0889774742258069,3,13.9,29.9
1.06666666666667,11.8140595293609,21.1267929941653,4.44249025438214,-0.0941399370982392,3,13.9,29.9
1.1,11.8149318861427,21.2732182538526,4.34319065428056,-0.099299600101574,3,13.9,29.9
1.13333333333333,11.8158069178008,21.416247435608,4.23873378330791,-0.104456870972651,3,13.9,29.9
1.16666666666667,11.8166817148124,21.5557664336838,4.13258770844236,-0.106146074865548,3,13.9,29.9
1.2,11.817553523964,21.6916612032605,4.02128767079936,-0.111300037643,3,13.9,29.9
1.23333333333333,11.8184199257751,21.823846456765,3.91002320551375,-0.111264465285609,3,13.9,29.9
1.26666666666667,11.8192790100351,21.9522943527689,3.79705103694027,-0.112972168573484,3,13.9,29.9
1.3,11.8201292958589,22.077006145063,3.68585965026064,-0.111191386679633,3,13.9,29.9
1.33333333333333,11.8209695823636,22.1979831036369,3.57296141800727,-0.112898232253366,3,13.9,29.9
1.36666666666667,11.8217989119107,22.3152265099041,3.46184475230079,-0.111116665706477,3,13.9,29.9
1.4,11.8226164767876,22.4287376498145,3.34902207697596,-0.112822675324837,3,13.9,29.9
1.43333333333333,11.8234215244247,22.5385178128154,3.23798185894503,-0.111040218030931,3,13.9,29.9
1.46666666666667,11.8242134072363,22.644597353313,3.12698040332659,-0.111001455618434,3,13.9,29.9
1.5,11.824991188783,22.7469775558978,3.01601792838282,-0.110962474943774,3,13.9,29.9
1.53333333333333,11.8257537543738,22.8456597014948,2.90509448643495,-0.110923441947869,3,13.9,29.9
1.56666666666667,11.8264998075501,22.9406450669879,2.79420993005145,-0.110884556383496,3,13.9,29.9
1.6,11.8272279075059,23.0319349247227,2.68336392019724,-0.110846009854217,3,13.9,29.9
1.63333333333333,11.8279365364546,23.1195305419013,2.5725559729762,-0.110807947221034,3,13.9,29.9
1.66666666666667,11.8286241806549,23.2034331799274,2.46178553255408,-0.110770440422122,3,13.9,29.9
1.7,11.8292890468653,23.2835863260534,2.34758596942061,-0.114199563133464,3,13.9,29.9
1.73333333333333,11.8299294895178,23.3599334731722,2.23342163574479,-0.114164333675826,3,13.9,29.9
1.76666666666667,11.8305446075959,23.4325073546262,2.12132524447555,-0.112096391269243,3,13.9,29.9
1.8,11.8311336604974,23.5013381879895,2.00902720995215,-0.112298034523393,3,13.9,29.9
1.83333333333333,11.8316964846058,23.5665198297129,1.90242049727307,-0.106606712679081,3,13.8991319444444,29.9
1.86666666666667,11.8322329332013,23.6281296081961,1.79471210687595,-0.107708390397122,3,13.8965277777778,29.9
1.9,11.8327427751845,23.6862171844447,1.69106243886491,-0.103649668011037,3,13.8921875,29.9
1.93333333333333,11.8332262172217,23.7408873361485,1.58964517202916,-0.101417266835755,3,13.8861111111111,29.9
1.96666666666667,11.833683306427,23.792213473593,1.49040361341165,-0.0992415586175088,3,13.8782986111111,29.9
2,11.8341143197554,23.8402959370039,1.39500406338028,-0.0953995500313727,3,13.86875,29.9
2.03333333333333,11.834519356408,23.8852035691048,1.29989953466802,-0.0951045287122572,3,13.8574652777778,29.9
2.06666666666667,11.8348983402667,23.9269743183177,1.20677201840418,-0.0931275162638345,3,13.8444444444444,29.9
2.1,11.8352514222751,23.9656729548275,1.11555872469938,-0.0912132937048067,3,13.8296875,29.9
2.13333333333333,11.8355789935655,24.0013919984087,1.02799838871116,-0.0875603359882218,3,13.8131944444444,29.9
2.16666666666667,11.8358812913236,24.0341961878361,0.940673983406894,-0.0873244053042617,3,13.7949652777778,29.9
2.2,11.8361584046116,24.0641236300388,0.855391829269275,-0.0852821541376189,3,13.775,29.9
2.23333333333333,11.8364108828412,24.09127097411,0.77383969826544,-0.0815521310038351,3,13.7532986111111,29.9
2.26666666666667,11.8366386564727,24.1156449059321,0.688963485416644,-0.0848762128487961,3,13.7298611111111,29.9
2.3,11.8368418653285,24.1372771790406,0.609329010291234,-0.0796344751254099,3,13.7046875,29.9
2.33333333333333,11.8370215073256,24.1563142284415,0.533248750989032,-0.0760802593022026,3,13.6777777777778,29.9
2.36666666666667,11.8371781876084,24.1728457694194,0.458993604286052,-0.0742551467029795,3,13.6491319444444,29.9
2.4,11.8373123162386,24.1869325250605,0.386550624330863,-0.0724429799551893,3,13.61875,29.9
2.43333333333333,11.8374243067713,24.1986338853343,0.315853287929868,-0.0706973364009951,3,13.5866319444444,29.9
2.46666666666667,11.8375145641231,24.2080067143034,0.246825211512094,-0.0690280764177741,3,13.5527777777778,29.9
2.5,11.8375834828553,24.2151054920385,0.17940860798771,-0.0674166035243835,3,13.5171875,29.9
2.53333333333333,11.8376316762144,24.2200134672467,0.115406564154475,-0.0640020438332354,3,13.4798611111111,29.9
2.56666666666667,11.8376595749452,24.2227888394816,0.051494882683724,-0.0639116814707509,3,13.4407986111111,29.9
2.6,11.837667334207,24.2234525532585,0.0183997509127539,-0.03309513177097,3,13.4,29.9
2.63333333333333,11.8376611906127,24.2228434315249,0.00214506925006097,-0.016254681662693,5,13.3574652777778,29.9
2.66666666666667,11.8376611906127,24.2228434315249,0.00233167024946466,0.000186600999403692,5,13.3131944444444,29.9
2.7,11.8376611906127,24.2228434315249,0.00270924695634407,0.000377576706879403,5,13.2671875,29.9
2.73333333333333,11.8376611906127,24.2228434315249,0.00324496989278953,0.00053572293644546,5,13.2194444444444,29.9
2.76666666666667,11.8376611906127,24.2228434315249,0.00387807473353438,0.000633104840744849,5,13.1699652777778,29.9
2.8,11.8376611906127,24.2228434315249,0.00453185775949757,0.000653783025963191,5,13.11875,29.9
2.83333333333333,11.8376611906127,24.2228434315249,0.00512517725148886,0.000593319491991295,5,13.0657986111111,29.9
2.86666666666667,11.8376611906127,24.2228434315249,0.00558253734188222,0.000457360090393357,5,13.0111111111111,29.9
2.9,11.8376611906127,24.2228434315249,0.00584210494759132,0.0002595676057091,5,12.9546875,29.9
2.93333333333333,11.8376611906127,24.2228434315249,0.00586128799781001,1.91830502186885e-05,5,12.8965277777778,29.9
2.96666666666667,11.8376611906127,24.2228434315249,0.00561976290141467,-0.000241525096395341,5,12.8366319444444,29.9
3,11.8376611906127,24.2228434315249,0.00512006465167011,-0.000499698249744555,5,12.775,29.9
3.03333333333333,11.8376611906127,24.2228434315249,0.00438603297756879,-0.000734031674101325,5,12.7116319444444,29.9
3.06666666666667,11.8376611906127,24.2228434315249,0.00345953652702106,-0.000926496450547726,5,12.6465277777778,29.9
3.1,11.8376611906127,24.2228434315249,0.00239597294362128,-0.00106356358339978,5,12.5796875,29.9
3.13333333333333,11.8376611906127,24.2228434315249,0.00125906864887098,-0.00113690429475029,5,12.5111111111111,29.9
3.16666666666667,11.8376611906127,24.2228434315249,0.00011548411366969,-0.00114358453520129,5,12.4407986111111,29.9
3.2,11.8376611906127,24.2228434315249,0.000970323421440034,0.000854839307770345,5,12.36875,29.9
3.23333333333333,11.8376611906127,24.2228434315249,0.00194060796535576,0.000970284543915727,5,12.2949652777778,29.9
3.26666666666667,11.8376611906127,24.2228434315249,0.00274793830882356,0.000807330343467799,5,12.2194444444444,29.9
3.3,11.8376611906127,24.2228434315249,0.003357725336963,0.000609787028139438,5,12.1421875,29.9
3.33333333333333,11.8376611906127,24.2228434315249,0.00374960322775456,0.000391877890791557,5,12.0631944444444,29.9
3.36666666666667,11.8376611906127,24.2228434315249,0.0039176876889133,0.000168084461158742,5,11.9824652777778,29.9
3.4,11.8376611906127,24.2228434315249,0.00386981320338351,-4.78744855297837e-05,5,11.9,29.9
3.43333333333333,11.8376611906127,24.2228434315249,0.00362591222710981,-0.000243900976273706,5,11.8157986111111,29.9
3.46666666666667,11.8376611906127,24.2228434315249,0.00321574059054944,-0.000410171636560364,5,11.7298611111111,29.9
3.5,11.8376611906127,24.2228434315249,0.00267617482478173,-0.000539565765767718,5,11.6421875,29.9
3.53333333333333,11.8376611906127,24.2228434315249,0.00204831000284367,-0.00062786482193806,5,11.5527777777778,29.9
3.56666666666667,11.8376611906127,24.2228434315249,0.00137457331028269,-0.000673736692560973,5,11.4616319444444,29.9
3.6,11.8376611906127,24.2228434315249,0.000696042075536881,-0.000678531234745811,5,11.36875,29.9
3.63333333333333,11.8376611906127,24.2228434315249,5.01189951196795e-05,-0.000645923080417202,5,11.2741319444444,29.9
3.66666666666667,11.8376611906127,24.2228434315249,0.000531324482332668,0.000481205487212989,5,11.1777777777778,29.9
3.7,11.8376611906127,24.2228434315249,0.00102326959078105,0.000491945108448386,5,11.0796875,29.9
3.73333333333333,11.8376611906127,24.2228434315249,0.0014083123430588,0.000385042752277744,5,10.9798611111111,29.9
3.76666666666667,11.8376611906127,24.2228434315249,0.00167688119721586,0.000268568854157064,5,10.8782986111111,29.9
3.8,11.8376611906127,24.2228434315249,0.00182695837641142,0.000150077179195557,5,10.775,29.9
3.83333333333333,11.8376611906127,24.2228434315249,0.001863378799408,3.6420422996576e-05,5,10.6699652777778,29.9
3.86666666666667,11.8376611906127,24.2228434315249,0.00179679841753071,-6.6580381877286e-05,5,10.5631944444444,29.9
3.9,11.8376611906127,24.2228434315249,0.00164243345404027,-0.000154364963490436,5,10.4546875,29.9
3.93333333333333,11.8376611906127,24.2228434315249,0.00151728645498171,-0.000125146999058561,5,10.3444444444444,29.9
3.96666666666667,11.8376630845303,24.2230981689796,0.0109807767267934,0.00946349027181166,5,10.2324652777778,29.9
4,11.8376674298903,24.2236826499823,0.0242109968376024,0.013230220110809,5,10.11875,29.9
4.03333333333333,11.8376774051193,24.2250240896566,0.0562891889702401,0.0320781921326377,4,10.0032986111111,29.9
4.06666666666667,11.8376976574279,24.2277464622181,0.106987920904736,0.0506987319344962,4,9.88611111111111,29.9
4.1,11.8377304240848,24.2321472017265,0.156937628944856,0.0499497080401194,4,9.7671875,29.9
4.13333333333333,11.8377755451448,24.2381969082494,0.205895358444149,0.0489577294992938,4,9.64652777777778,29.9
4.16666666666667,11.8378328563397,24.245859600054,0.253703948901545,0.0478085904573957,4,9.52413194444444,29.9
4.2,11.8379022248961,24.2550962351735,0.300346197684956,0.0466422487834107,4,9.4,29.9
4.23333333333333,11.8379835873047,24.2658688675974,0.345877366372906,0.0455311686879503,4,9.27413194444444,29.9
4.26666666666667,11.8380769577808,24.2781412824394,0.390343738459506,0.0444663720865995,4,9.14652777777778,29.9
4.3,11.8381824260732,24.2918786647727,0.43378298779004,0.0434392493305346,4,9.0171875,29.9
4.33333333333333,11.8383001520884,24.3070473417035,0.476225189958639,0.0424422021685992,4,8.88611111111111,29.9
4.36666666666667,11.8384303548399,24.3236142782328,0.517675845022969,0.0414506550643296,4,8.75329861111111,29.9
4.4,11.8385732958394,24.3415463354768,0.558130195084097,0.0404543500611275,4,8.61875,29.9
4.43333333333333,11.8387292649226,24.3608103301441,0.597591326256425,0.039461131172328,4,8.48246527777778,29.9
4.46666666666667,11.8388985644256,24.3813732737554,0.636068372863898,0.0384770466074734,4,8.34444444444444,29.9
4.5,11.8390814906607,24.4032025454313,0.673574640329708,0.0375062674658102,4,8.2046875,29.9
4.53333333333333,11.8392783142201,24.4262660726715,0.710133812406327,0.0365591720766185,4,8.06319444444444,29.9
4.56666666666667,11.8394892712319,24.4505339871299,0.745919953086232,0.0357861406799054,4,7.91996527777778,29.9
4.6,11.8397146737726,24.475995947999,0.782105486673739,0.0361855335875072,4,7.775,29.9
4.63333333333333,11.8399551930381,24.5027007219926,0.820871170105095,0.0387656834313554,4,7.62829861111111,29.9
4.66666666666667,11.8402119726777,24.5307717994583,0.864450737603792,0.0435795674986972,4,7.47986111111111,29.9
4.7,11.8404866143323,24.5604045730904,0.91493467766107,0.0504839400572784,4,7.3296875,29.9
4.73333333333333,11.8407812072444,24.5918679061686,0.974738401143789,0.0598037234827186,4,7.17777777777778,29.9
4.76666666666667,11.8410984646453,24.6255181006563,1.04661491767253,0.0718765165287439,4,7.02413194444444,29.9
4.8,11.8414417900492,24.6618016252783,1.13311084153427,0.0864959238617342,4,6.86875,29.9
4.83333333333333,11.8418151975284,24.7012366828667,1.23588807974922,0.102777238214949,4,6.71163194444444,29.9
4.86666666666667,11.8422231138613,24.7443776214172,1.35546942013282,0.119581340383603,4,6.55277777777778,29.9
4.9,11.8426701852444,24.7917787151641,1.49135781842194,0.135888398289116,4,6.3921875,29.9
4.93333333333333,11.8431611345384,24.8439640593386,1.6422669038894,0.15090908546746,4,6.22986111111111,29.9
4.96666666666667,11.8437006716268,24.9014051711576,1.80640741361932,0.164140509729924,4,6.06579861111111,29.9
5,11.8442934791742,24.9645108176247,1.98183506367368,0.175427650054357,4,5.9,29.9
5.03333333333333,11.8449442239789,25.0336245521001,2.16660217693224,0.184767113258559,4,5.9,29.9
5.06666666666667,11.8456575526358,25.109026337974,2.35884729883626,0.192245121904024,4,5.9,29.9
5.1,11.8464380464741,25.1909360225918,2.5568280505836,0.197980751747344,4,5.9,29.9
5.13333333333333,11.8472900852984,25.2795170110193,2.75885900385081,0.202030953267202,4,5.9,29.9
5.16666666666667,11.848217460524,25.3748739442724,2.9631232883659,0.204264284515094,4,5.9,29.9
5.2,11.8492231581426,25.4770544503136,3.16806951801584,0.204946229649942,4,5.9,29.9
5.23333333333333,11.8503094036175,25.5860601076555,3.3724701810756,0.204400663059762,4,5.9,29.9
5.26666666666667,11.8514777646474,25.7018557508356,3.57536554622062,0.20289536514501,4,5.9,29.9
5.3,11.8527293268216,25.8243814906369,3.77623118011428,0.200865633893667,4,5.9,29.9
5.33333333333333,11.8540648910033,25.9535640226678,3.97474924689465,0.198518066780365,4,5.9,29.9
5.36666666666667,11.855485119205,26.0893212856862,4.1707080230824,0.195958776187752,4,5.9,29.9
5.4,11.8569906511571,26.2315651858394,4.36393586133579,0.193227838253394,4,5.9,29.9
5.43333333333333,11.8585821618257,26.3802003177902,4.55416206877244,0.190226207436651,4,5.9,29.9
5.46666666666667,11.8602603893757,26.5351224914481,4.7411673485381,0.187005279765659,4,5.9,29.9
5.5,11.86202618815,26.6962227370986,4.92488014169788,0.183712793159779,4,5.9,29.9
5.53333333333333,11.8638805649873,26.8633914542003,5.10532240570086,0.180442264002974,4,5.9,29.9
5.56666666666667,11.8658246734484,27.0365194159821,5.28242521415782,0.177102808456966,4,5.9,29.9
5.6,11.8678596689225,27.215485545392,5.4554483136228,0.173023099464978,4,5.9,29.9
5.63333333333333,11.8699863648519,27.4001263030702,5.6225411567373,0.167092843114503,4,5.9,29.9
5.66666666666667,11.8722047815076,27.5901972693563,5.78067400576523,0.158132849027929,4,5.9,29.9
5.7,11.8745135871292,27.7853279207247,5.92534898086818,0.144674975102943,4,5.9,29.9
5.73333333333333,11.8769096323598,27.9849893591001,6.05183989836109,0.126490917492917,4,5.9,29.9
5.76666666666667,11.8793890303786,28.1886087891412,6.16518033991825,0.113340441557157,4,5.9,29.9
5.8,11.8819503771004,28.3958735540252,6.26992877090764,0.104748430989388,4,5.9,29.9
5.83333333333333,11.8845916670412,28.6064417717911,6.3630642674231,0.0931354965154618,4,5.9,29.9
5.86666666666667,11.887309769718,28.8198966473448,6.44302799621628,0.0799637287931807,4,5.9,29.9
5.9,11.8901008818974,29.0357899552357,6.50938541580574,0.0663574195894636,4,5.9,29.9
5.93333333333333,11.8929608029704,29.2536674334049,6.56214691882669,0.052761503020947,4,5.9,29.9
5.96666666666667,11.8958850275766,29.4730768023926,6.60136249379793,0.0392155749712408,4,5.9,29.9
6,11.8988689591239,29.6935849650307,6.6286325888428,0.027270095044865,4,5.9,29.9
6.03333333333333,11.9019087785063,29.9148473972404,6.64714450420951,0.0185119153667186,4,5.9,29.9
6.06666666666667,11.905001604647,30.1366157234757,6.65937446785161,0.0122299636420946,1,5.9,29.9
6.1,11.9081452475578,30.3587117527201,6.66709634134101,0.00772187348940179,1,5.9,29.9
6.13333333333333,11.9113380218974,30.5810075675177,6.67158059415336,0.00448425281235032,1,5.9,29.9
6.16666666666667,11.9145786175384,30.8034112530931,6.67373688887269,0.00215629471932743,1,5.9,29.9
6.2,11.9178660091352,31.0258566678571,6.67421625069258,0.000479361819890833,1,5.9,29.9
6.23333333333333,11.9211993918868,31.2482961094207,6.67348426494188,-0.000731985750702435,1,5.9,29.9
6.26666666666667,11.9245781345179,31.4706950547101,6.67187350143694,-0.00161076350494227,1,5.9,29.9
6.3,11.9280017433528,31.6930283853107,6.66962103975255,-0.00225246168438975,1,5.9,29.9
6.33333333333333,11.9314698337641,31.9152776944429,6.66689816790738,-0.00272287184516351,1,5.9,29.9
6.36666666666667,11.9349821103201,32.1374296322862,6.66383744582503,-0.00306072208234998,1,5.9,29.9
6.4,11.9385383462612,32.3594744962012,6.66052929530151,-0.00330815052352662,1,5.9,29.9
6.43333333333333,11.9421383666945,32.581405264857,6.65704416154726,-0.00348513375424186,1,5.9,29.9
6.46666666666667,11.9457820345632,32.8032169120908,6.65343250454711,-0.00361165700015498,1,5.9,29.9
6.5,11.9494692381991,33.0249058415249,6.64973044956487,-0.00370205498223708,1,5.9,29.9
6.53333333333333,11.9531998817956,33.2464694814181,6.64596384491939,-0.00376660464547829,1,5.9,29.9
