Time,x_ego,y_ego,velocity,acceleration,action,x_ped,y_ped
0,11.8,8.9,7,0,1,15.5,29.9
0.0333333333333333,11.8000066704774,9.13327037937785,6.99615580151573,-0.00384419848427253,1,15.5,29.9
0.0666666666666667,11.8000492094017,9.3664065981439,6.99196973176468,-0.00418606975105096,1,15.5,29.9
0.1,11.8001536195408,9.59940074900044,6.98769592773356,-0.00427380403111943,1,15.5,29.9
0.133333333333333,11.8003343305274,9.83225375645595,6.98349969282335,-0.00419623491020804,1,15.5,29.9
0.166666666666667,11.8005968360697,10.0649677915136,6.97935919116435,-0.00414050165900282,1,15.5,29.9
0.2,11.8009409931913,10.2975444066458,6.97525868323949,-0.00410050792485883,1,15.5,29.9
0.233333333333333,11.8013636004572,10.5299847136757,6.97118689982492,-0.00407178341457204,1,15.5,29.9
0.266666666666667,11.8018601403239,10.7622895118906,6.96713582258481,-0.00405107724010545,1,15.5,29.9
0.3,11.8024257832301,10.9944593793919,6.96309976432888,-0.00403605825593445,1,15.5,29.9
0.333333333333333,11.8030558597698,11.2264947376952,6.95907468895712,-0.0040250753717519,1,15.5,29.9
0.366666666666667,11.8037460272325,11.4583958972031,6.95505772274131,-0.00401696621581582,1,15.5,29.9
0.4,11.804492315977,11.6901630891459,6.95104681145942,-0.00401091128188913,1,15.5,29.9
0.433333333333333,11.8052911711273,11.92179648797,6.94704048289165,-0.00400632856776362,1,15.5,29.9
0.466666666666667,11.8061395335273,12.1532962269726,6.9430376821228,-0.00400280076885107,1,15.5,29.9
0.5,11.8070349495873,12.3846624091838,6.93903765571357,-0.00400002640923791,1,15.5,29.9
0.533333333333333,11.807975671132,12.6158951149622,6.93503986836795,-0.00399778734561629,1,15.5,29.9
0.566666666666667,11.8089607029902,12.8469944073865,6.93104394159844,-0.00399592676950533,1,15.5,29.9
0.6,11.8099906076478,13.077960333574,6.92704970391402,-0.00399423768442819,1,15.5,29.9
0.633333333333333,11.8110692824634,13.3087929205386,6.92305699606842,-0.00399270784559391,1,15.5,29.9
0.666666666666667,11.8122003281775,13.5394921873127,6.91906560373051,-0.00399139233791068,1,15.5,29.9
0.7,11.8133861938766,13.7700581502717,6.91507537280585,-0.00399023092466155,1,15.5,29.9
0.733333333333333,11.8146283745955,14.0004908248074,6.91108619431271,-0.00398917849314095,1,15.5,29.9
0.766666666666667,11.8159276108363,14.2307902263965,6.90709799278765,-0.00398820152506207,1,15.5,29.9
0.8,11.8172840668969,14.4609563712463,6.90311071713127,-0.0039872756563808,1,15.5,29.9
0.833333333333333,11.8186974833959,14.6909892766184,6.89912433350482,-0.00398638362644466,1,15.5,29.9
0.866666666666667,11.8201673081636,14.9208889608958,6.89513882009859,-0.00398551340622877,1,15.5,29.9
0.9,11.8216928111126,15.1506554434441,6.89115416351231,-0.00398465658628133,1,15.5,29.9
0.933333333333333,11.8232740182936,15.3802887397718,6.88717046283379,-0.0039837006785195,1,15.5,29.9
0.966666666666667,11.8249136851774,15.609788849469,6.88318775336122,-0.00398270947257551,1,15.5,29.9
1,11.8266139360019,15.8391557729921,6.87920594994575,-0.00398180341546794,1,15.5,29.9
1.03333333333333,11.8283756684205,16.0683895160728,6.87522499335712,-0.00398095658862374,1,15.5,29.9
1.06666666666667,11.8301989748645,16.2974900885273,6.87124484921666,-0.00398014414046699,1,15.5,29.9
1.1,11.832083503489,16.526457502936,6.86726550409761,-0.00397934511904641,1,15.5,29.9
1.13333333333333,11.8340287179644,16.7552917735219,6.86328695935484,-0.00397854474276826,1,15.5,29.9
1.16666666666667,11.8360340514284,16.9839929153788,6.85930922435427,-0.00397773500056964,1,15.5,29.9
1.2,11.8380989739621,17.2125609440595,6.85533231073901,-0.00397691361526409,1,15.5,29.9
1.23333333333333,11.8402230040845,17.440995875434,6.85135622865938,-0.00397608207962907,1,15.5,29.9
1.26666666666667,11.8424056949013,17.6692977256839,6.84738098508669,-0.00397524357268697,1,15.5,29.9
1.3,11.8446466183495,17.8974665113075,6.84340658376981,-0.00397440131687965,1,15.5,29.9
1.33333333333333,11.8469453605511,18.1255022490502,6.83943302615811,-0.00397355761170459,1,15.5,29.9
1.36666666666667,11.8493015312164,18.3534049557343,6.83546031263313,-0.00397271352497697,1,15.5,29.9
1.4,11.8517147827269,18.5811746480134,6.83148844355795,-0.00397186907518332,1,15.5,29.9
1.43333333333333,11.8541848310071,18.8088113421129,6.82751741987727,-0.00397102368067781,1,15.5,29.9
1.46666666666667,11.8567114703714,19.0363150536218,6.82354724321733,-0.00397017665994515,1,15.5,29.9
1.5,11.8592945771532,19.2636857973906,6.81957791559591,-0.003969327621415,1,15.5,29.9
1.53333333333333,11.8619341006973,19.4909235875587,6.81560943893711,-0.00396847665879996,1,15.4972222222222,29.9
1.56666666666667,11.8646300438778,19.7180284376997,6.81164181459164,-0.00396762434547515,1,15.4888888888889,29.9
1.6,11.8673824377533,19.9450003610495,6.80767504301357,-0.00396677157806913,1,15.475,29.9
1.63333333333333,11.8701913158558,20.1718393707635,6.80370912366677,-0.0039659193467978,1,15.4555555555556,29.9
1.66666666666667,11.8730566929954,20.39854548015,6.79974405515732,-0.00396506850944878,1,15.4305555555556,29.9
1.7,11.8759785517893,20.6251187028388,6.79577983553059,-0.00396421962673266,1,15.4,29.9
1.73333333333333,11.8789568379877,20.8515590528629,6.79181646264161,-0.00396337288897808,1,15.3666666666667,29.9
1.76666666666667,11.881991463675,21.0778665446522,6.78785393450543,-0.0039625281361797,1,15.3333333333333,29.9
1.8,11.8850823159939,21.3040411929591,6.78389224955448,-0.00396168495095139,1,15.3,29.9
1.83333333333333,11.8882292684086,21.5300830127437,6.77993140676385,-0.00396084279062325,1,15.2666666666667,29.9
1.86666666666667,11.8914321916478,21.7559920190504,6.77597140564237,-0.00396000112148087,1,15.2333333333333,29.9
1.9,11.8946909621903,21.9817682269051,6.77201224611776,-0.00395915952461845,1,15.2,29.9
1.93333333333333,11.8980054671669,22.207411651248,6.7680539283625,-0.00395831775525579,1,15.1666666666667,29.9
1.96666666666667,11.9013756055846,22.4329223069103,6.76409645261047,-0.00395747575202865,1,15.1333333333333,29.9
2,11.9048012865855,22.6583002086273,6.76013981900556,-0.00395663360490861,1,15.1,29.9
2.03333333333333,11.9082824259191,22.8835453710784,6.75618402750742,-0.00395579149814296,1,15.0666666666667,29.9
2.06666666666667,11.911818941899,23.1086578089368,6.75222907786099,-0.0039549496464284,1,15.0333333333333,29.9
2.1,11.915410751906,23.3336375369159,6.74827496962097,-0.00395410824002163,1,15,29.9
2.13333333333333,11.9190577701042,23.558484569802,6.74432170221226,-0.00395326740870861,1,14.9666666666667,29.9
2.16666666666667,11.9227599065872,23.783198922468,6.74036927500411,-0.00395242720815236,1,14.9333333333333,29.9
2.2,11.9265170677863,24.0077806098705,6.73641768737782,-0.00395158762628967,1,14.9,29.9
2.23333333333333,11.9303291577194,24.2322296470334,6.73246693877429,-0.0039507486035335,1,14.8666666666667,29.9
2.26666666666667,11.9341960795651,24.4565460490253,6.72851702871543,-0.00394991005885359,1,14.8333333333333,29.9
2.3,11.9381177370985,24.6807298309385,6.72456795680103,-0.00394907191440108,1,14.8,29.9
2.33333333333333,11.9420940356685,24.904781007873,6.72061972268772,-0.0039482341133148,1,14.7666666666667,29.9
2.36666666666667,11.9461248825851,25.1286995949292,6.71667232605945,-0.00394739662826904,1,14.7333333333333,29.9
2.4,11.950210186956,25.35248560721,6.7127257665985,-0.00394655946094602,1,14.7,29.9
2.43333333333333,11.9543498591361,25.5761390598279,6.70878004396373,-0.00394572263476611,1,14.6666666666667,29.9
2.46666666666667,11.958543810007,25.7996599679168,6.70483515777959,-0.00394488618414535,1,14.6333333333333,29.9
2.5,11.9627919502968,26.0230483466432,6.70089110763592,-0.00394405014367116,1,14.6,29.9
2.53333333333333,11.9670941900911,26.2463042112144,6.69694789309621,-0.00394321453970736,1,14.5666666666667,29.9
2.56666666666667,11.9714504386099,26.4694275768832,6.69300551371032,-0.00394237938588748,1,14.5333333333333,29.9
2.6,11.9758606042436,26.6924184589476,6.68906396902768,-0.00394154468263963,1,14.5,29.9
2.63333333333333,11.9803245947843,26.9152768727474,6.68512325860776,-0.00394071041992383,1,14.4666666666667,29.9
2.66666666666667,11.984842317755,27.1380028336582,6.68118338202591,-0.00393987658184969,1,14.4333333333333,29.9
2.7,11.9894136807396,27.3605963570857,6.67724433887433,-0.00393904315158267,1,14.4,29.9
2.73333333333333,11.9940385916385,27.5830574584611,6.67330612875888,-0.00393821011544393,1,14.3666666666667,29.9
2.76666666666667,11.9987169588067,27.8053861532375,6.66936875129358,-0.00393737746530576,1,14.3333333333333,29.9
2.8,12.0034478835588,28.0275824731578,6.66543214839216,-0.00393660290141451,1,14.3,29.9
2.83333333333333,12.0082278173076,28.2496465215208,6.66149772444333,-0.00393442394882904,1,14.2666666666667,29.9
2.86666666666667,12.0130530765697,28.4715785027512,6.657569625717,-0.0039280987263357,1,14.2333333333333,29.9
2.9,12.0179178848032,28.6933788341716,6.65365340269401,-0.00391622302298789,1,14.2,29.9
2.93333333333333,12.0228155723347,28.9150481502393,6.64975499358683,-0.00389840910717609,1,14.1666666666667,29.9
2.96666666666667,12.0277412244127,29.1365872394134,6.64587965624501,-0.00387533734182721,1,14.1333333333333,29.9
3,12.0326898176163,29.3579970506252,6.6420315113402,-0.00384814490480689,1,14.1,29.9
3.03333333333333,12.0376578868743,29.5792786166324,6.63821340684521,-0.00381810449498943,1,14.0666666666667,29.9
3.06666666666667,12.0426409144162,29.8004330700838,6.63442708117538,-0.00378632566983406,1,14.0333333333333,29.9
3.1,12.0476337661664,30.0214616023628,6.63067342562364,-0.00375365555173612,1,14,29.9
3.13333333333333,12.0526339574116,30.2423653590443,6.62695229779247,-0.00372112783116751,1,13.9666666666667,29.9
3.16666666666667,12.0576415126958,30.4631454668181,6.62327195421794,-0.00368034357453428,1,13.9333333333333,29.9
3.2,12.0626581917633,30.6838115064515,6.6204537399458,-0.00281821427213469,1,13.9,29.9
3.23333333333333,12.0676878709922,30.9044329139305,6.62098136188842,0.000527621942616463,1,13.8666666666667,29.9
3.26666666666667,12.0727361779288,31.1251455659071,6.62601471265018,0.00503335076175482,1,13.8333333333333,29.9
3.3,12.0778090757569,31.3461020996486,6.63560327763791,0.0095885649877312,1,13.8,29.9
3.33333333333333,12.0829121455502,31.5674480041641,6.64931929472884,0.013716017090931,1,13.7666666666667,29.9
3.36666666666667,12.0880502498709,31.7893108563452,6.66655908581445,0.0172397910856121,1,13.7333333333333,29.9
3.4,12.0932274552063,32.0117986091553,6.68677588688246,0.0202168010680133,4,13.7,29.9
3.43333333333333,12.0984470962638,32.2350026429298,6.70951137250017,0.0227354856177042,4,13.6666666666667,29.9
3.46666666666667,12.1037118387182,32.4589997372035,6.73434169434653,0.0248303218463599,4,13.6333333333333,29.9
3.5,12.1090237376939,32.6838531286477,6.76088180103404,0.0265401066875111,4,13.6,29.9
3.53333333333333,12.1143843211907,32.9096140728236,6.78879741009447,0.0279156090604307,4,13.5666666666667,29.9
3.56666666666667,12.1197946871454,33.1363235207769,6.8178036679601,0.0290062578656318,4,13.5333333333333,29.9
3.6,12.1252556057312,33.3640137280338,6.84766400903365,0.029860341073551,4,13.5,29.9
3.63333333333333,12.1307676269541,33.5927100584447,6.87820398303193,0.0305399739982803,4,13.4666666666667,29.9
3.66666666666667,12.1363311892973,33.8224330876412,6.90930650716678,0.0311025241348446,4,13.4333333333333,29.9
3.7,12.1419467021864,34.0532000981442,6.94088897708789,0.0315824699211138,4,13.4,29.9
3.73333333333333,12.1476146034468,34.2850261987791,6.97290402640645,0.032015049318562,4,13.3666666666667,29.9
3.76666666666667,12.1533353934743,34.5179252001503,7.00531355702311,0.0324095306166532,4,13.3333333333333,29.9
3.8,12.1591096270022,34.7519093764359,7.03806255424851,0.032748997225406,4,13.3,29.9
3.83333333333333,12.1649378808706,34.9869887422052,7.07106842983207,0.0330058755835623,4,13.2666666666667,29.9
3.86666666666667,12.1708207094763,35.2231701253847,7.10422551733011,0.0331570874980347,4,13.2333333333333,29.9
3.9,12.1767586028341,35.4604564424514,7.13739775330387,0.0331722359737618,4,13.2,29.9
3.93333333333333,12.1827519193368,35.698844847983,7.1703703570521,0.0329726037482319,4,13.1666666666667,29.9
3.96666666666667,12.1888008038361,35.9383241065881,7.20286142836692,0.0324910713148183,4,13.1333333333333,29.9
4,12.1949051151211,36.1788721514275,7.23446670760234,0.0316052792354169,4,13.1,29.9
4.03333333333333,12.2010641979764,36.4204471832969,7.26435764904785,0.0298909414455162,4,13.0666666666667,29.9
4.06666666666667,12.2072764746309,36.6629715226935,7.29126488688629,0.0269072378384339,4,13.0333333333333,29.9
4.1,12.2135391628645,36.9063208186445,7.31359716543562,0.0223322785493325,4,13,29.9
4.13333333333333,12.2198480283278,37.1503148996893,7.32990714434587,0.0163099789102485,1,12.9666666666667,29.9
4.16666666666667,12.2261982925512,37.3947547610132,7.34063405085573,0.0107269065098583,1,12.9333333333333,29.9
4.2,12.2325860592833,37.639479423468,7.34727384328921,0.00663979243348756,1,12.9,29.9
4.23333333333333,12.239008503504,37.8843729745821,7.35098010663998,0.00370626335076718,1,12.8666666666667,29.9
4.26666666666667,12.2454635717137,38.1293521847371,7.35257892792277,0.00159882128278444,1,12.8333333333333,29.9
4.3,12.2519497584788,38.3743572256217,7.35266168329378,8.27553710118778e-05,1,12.8,29.9
4.33333333333333,12.2584659482053,38.619345017965,7.35165151734968,-0.00101016594409398,1,12.7666666666667,29.9
4.36666666666667,12.2650113037834,38.8642844631064,7.3498509736821,-0.00180054366758675,1,12.7333333333333,29.9
4.4,12.2715851886414,39.1091530240553,7.34747610954163,-0.0023748641404655,1,12.7,29.9
4.43333333333333,12.2781862299898,39.3539342961216,7.34468086924729,-0.0027952402943372,1,12.6666666666667,29.9
