Time,x_ego,y_ego,velocity,acceleration,action,x_ped,y_ped
0,11.8,15.9,7,0,1,15.5,29.9
0.0333333333333333,11.8,16.1332703793943,6.99615577953002,-0.00384422046998356,1,15.4502170138889,29.9
0.0666666666666667,11.8,16.3664065988113,6.99196947109348,-0.00418630843653833,1,15.4008680555556,29.9
0.1,11.8,16.5994007552791,6.98769498718995,-0.00427448390352669,1,15.351953125,29.9
0.133333333333333,11.8,16.8322537852842,6.9834976545359,-0.00419733265404787,1,15.3034722222222,29.9
0.166666666666667,11.8,17.0649678802301,6.97935585456763,-0.00414179996826913,1,15.2554253472222,29.9
0.2,11.8,17.2975446186632,6.97525409491249,-0.00410175965514537,1,15.2078125,29.9
0.233333333333333,11.8,17.5299851399444,6.97118127319767,-0.00407282171482137,1,15.1606336805556,29.9
0.266666666666667,11.8,17.7622902687052,6.96712943294736,-0.00405184025031069,1,15.1138888888889,29.9
0.3,11.8,17.9944606040335,6.96309287213007,-0.00403656081728965,1,15.067578125,29.9
0.333333333333333,11.8,18.2264965833863,6.95906750439986,-0.00402536773020401,1,15.0217013888889,29.9
0.366666666666667,11.8,18.4583985283897,6.95505040137947,-0.00401710302039238,1,14.9762586805556,29.9
0.4,11.8,18.6901666776599,6.95103946463339,-0.00401093674607722,1,14.93125,29.9
0.433333333333333,11.8,18.9218012103233,6.94703319054231,-0.00400627409108711,1,14.8866753472222,29.9
0.466666666666667,11.8,19.1533022628712,6.94303050173604,-0.00400268880626342,1,14.8425347222222,29.9
0.5,11.8,19.3846699412377,6.93903062623031,-0.00399987550573222,1,14.798828125,29.9
0.533333333333333,11.8,19.6159043294559,6.93503301077307,-0.00399761545723631,1,14.7555555555556,29.9
0.566666666666667,11.8000008790392,19.8470054958595,6.93103725912485,-0.00399575164822075,1,14.7127170138889,29.9
0.6,11.800006383546,20.0779734975184,6.92704308991982,-0.00399416920503004,1,14.6703125,29.9
0.633333333333333,11.8000195018556,20.3088083833758,6.92305030195689,-0.00399278796293778,1,14.6283420138889,29.9
0.666666666666667,11.8000425829725,20.5395101964587,6.919058754435,-0.00399154752188835,1,14.5868055555556,29.9
0.7,11.8000811850571,20.7700789752968,6.9150683707169,-0.00399038371809279,1,14.545703125,29.9
0.733333333333333,11.8001457042335,21.0005147544406,6.91107912784902,-0.00398924286788471,1,14.5050347222222,29.9
0.766666666666667,11.8002478573221,21.2308175642454,6.90709105067074,-0.00398807717828298,1,14.4648003472222,29.9
0.8,11.8004010792067,21.4609874296909,6.90310418546488,-0.0039868652058539,1,14.425,29.9
0.833333333333333,11.8006179198109,21.6910243689804,6.89911858652284,-0.0039855989420472,1,14.3856336805556,29.9
0.866666666666667,11.8009104543667,21.9209283918183,6.89513421842491,-0.00398436809792724,1,14.3467013888889,29.9
0.9,11.8012848190909,22.1506995011377,6.89115087251977,-0.00398334590513549,1,14.308203125,29.9
0.933333333333333,11.8017418099769,22.3803376965684,6.88716833356891,-0.00398253895086054,1,14.2701388888889,29.9
0.966666666666667,11.8022781806578,22.6098429789402,6.88318635059477,-0.0039819829741452,1,14.2325086805556,29.9
1,11.8028863345251,22.8392153565122,6.87920480780384,-0.00398154279092466,1,14.1953125,29.9
1.03333333333333,11.8035580046987,23.0684548457573,6.87522369142356,-0.00398111638028098,1,14.1585503472222,29.9
1.06666666666667,11.8042828900633,23.2975614752326,6.87124297776248,-0.00398071366107722,1,14.1222222222222,29.9
1.1,11.8050499512559,23.526535284977,6.86726282758748,-0.00398015017500608,1,14.086328125,29.9
1.13333333333333,11.8058504535746,23.7553763194195,6.86328337350427,-0.00397945408320854,1,14.0508680555556,29.9
1.16666666666667,11.8066754199522,23.9840846296858,6.859304643995,-0.00397872950926903,1,14.0158420138889,29.9
1.2,11.8075152966716,24.2126602732996,6.85532669208867,-0.00397795190632966,1,13.98125,29.9
1.23333333333333,11.8083606183294,24.4411033115067,6.85134959040955,-0.00397710167911924,1,13.9470920138889,29.9
1.26666666666667,11.8092017956843,24.6694138085705,6.84737335704057,-0.00397623336898345,1,13.9133680555556,29.9
1.3,11.8100274420661,24.897591835637,6.84339806875687,-0.00397528828370231,1,13.9133680555556,29.9
1.33333333333333,11.8108268532112,25.1256374626553,6.8394238111418,-0.00397425761506565,1,13.9133680555556,29.9
1.36666666666667,11.8115879283781,25.3535507628696,6.83545066254206,-0.00397314859974074,1,13.9133680555556,29.9
1.4,11.8122958953175,25.5813318150359,6.83147874777339,-0.00397191476867143,1,13.9133680555556,29.9
1.43333333333333,11.8129296155736,25.8089807117912,6.8275083415357,-0.00397040623768952,1,13.9133680555556,29.9
1.46666666666667,11.8134659907985,26.0364975404296,6.82353977355968,-0.00396856797602396,1,13.9133680555556,29.9
1.5,11.8138838264771,26.2638823639705,6.81957316159465,-0.0039666119650219,1,13.9133680555556,29.9
1.53333333333333,11.8141703949944,26.4911351981929,6.81560814491139,-0.00396501668326188,1,13.9133680555556,29.9
1.56666666666667,11.8143238144665,26.7182560106201,6.81164396386049,-0.0039641810508968,1,13.9133680555556,29.9
1.6,11.8143516517575,26.9452447385919,6.80767998501529,-0.00396397884520727,1,13.9133680555556,29.9
1.63333333333333,11.8142650562665,27.1721013182335,6.80371586771349,-0.00396411730179747,1,13.9133680555556,29.9
1.66666666666667,11.8140785091068,27.3988256959262,6.79975144239899,-0.00396442531450436,1,13.9133680555556,29.9
1.7,11.8138083274866,27.6254178382074,6.79578680614073,-0.00396463625825927,1,13.9133680555556,29.9
1.73333333333333,11.813471719859,27.8518777354673,6.79182206389719,-0.00396474224353938,1,13.9133680555556,29.9
1.76666666666667,11.8130877366671,28.0782054007534,6.78785747671728,-0.00396458717990367,1,13.9133680555556,29.9
1.8,11.812674324212,28.3044008682279,6.78389333308433,-0.00396414363295161,1,13.9133680555556,29.9
1.83333333333333,11.8122507442108,28.530464187486,6.77992973385429,-0.00396359923004574,1,13.9133680555556,29.9
1.86666666666667,11.8118397671887,28.7563954211596,6.77596687205321,-0.00396286180107897,1,13.9133680555556,29.9
1.9,11.8114654433595,28.9821946408694,6.77200519071882,-0.00396168133438213,1,13.9133680555556,29.9
1.93333333333333,11.8111483523598,29.2078619174129,6.76804510619523,-0.00396008452359808,1,13.9133680555556,29.9
1.96666666666667,11.8109050848075,29.4333973120014,6.76408682084952,-0.00395828534570697,1,13.9133680555556,29.9
2,11.8107482895841,29.6588008706804,6.76013035688173,-0.00395646396779181,1,13.9133680555556,29.9
2.03333333333333,11.8106839154917,29.8840726200626,6.75617548609993,-0.00395487078180246,1,13.9133680555556,29.9
2.06666666666667,11.8107101388656,30.1092125690465,6.75222179026206,-0.00395369583787009,1,13.9133680555556,29.9
2.1,11.8108192765058,30.3342207168839,6.74826881968561,-0.00395297057644228,1,13.9133680555556,29.9
2.13333333333333,11.8109987733184,30.559097061969,6.74431629824912,-0.00395252143649127,1,13.9133680555556,29.9
2.16666666666667,11.8112354567413,30.7838416098287,6.74036413332221,-0.00395216492691475,1,13.9133680555556,29.9
2.2,11.8115146052375,31.0084543758551,6.73641231390354,-0.00395181941866962,1,13.9133680555556,29.9
2.23333333333333,11.8118216608501,31.232935386177,6.73246102068494,-0.00395129321860122,1,13.9133680555556,29.9
2.26666666666667,11.8121461098712,31.4572846742599,6.7285104825436,-0.00395053814134005,1,13.9133680555556,29.9
2.3,11.8124814963414,31.6815022760819,6.72456083230718,-0.00394965023641802,1,13.9133680555556,29.9
2.33333333333333,11.8128244246502,31.9055882269713,6.72061212407319,-0.00394870823398907,1,13.9133680555556,29.9
2.36666666666667,11.8131736967682,32.1295425601352,6.71666436503074,-0.0039477590424486,1,13.9133680555556,29.9
2.4,11.8135296430273,32.3533653062966,6.71271754147162,-0.0039468235591249,1,13.9133680555556,29.9
2.43333333333333,11.8138936294223,32.5770564938877,6.70877163424436,-0.00394590722725674,1,13.9133680555556,29.9
2.46666666666667,11.8142676901089,32.8006161494487,6.70482662576969,-0.00394500847467238,1,13.9133680555556,29.9
2.5,11.8146542321394,33.0240442980665,6.70088250207963,-0.00394412369005348,1,13.9133680555556,29.9
2.53333333333333,11.8150557771624,33.2473409638029,6.69693925251821,-0.00394324956142356,1,13.9133680555556,29.9
2.56666666666667,11.8154747285018,33.4705061701106,6.69299686862917,-0.00394238388904355,1,13.9133680555556,29.9
2.6,11.8159124017174,33.6935399413451,6.6890553069067,-0.00394156172246962,1,13.9133680555556,29.9
2.63333333333333,11.8163655410152,33.916442308545,6.68511447754494,-0.00394082936175355,1,13.9133680555556,29.9
2.66666666666667,11.8168241426605,34.1392133147381,6.68117433291366,-0.003940144631283,1,13.9133680555556,29.9
2.7,11.8172731964033,34.3618530140939,6.67723494067701,-0.0039393922366493,1,13.9133680555556,29.9
2.73333333333333,11.8176961166268,34.5843614660092,6.67329647100141,-0.00393846967559597,1,13.9133680555556,29.9
2.76666666666667,11.8180790627157,34.806738725167,6.66935907156071,-0.00393739944070148,1,13.9133680555556,29.9
2.8,11.8184119702158,35.0289848365587,6.66542278534283,-0.00393628621788444,1,13.9133680555556,29.9
2.83333333333333,11.8186904961935,35.2510998305964,6.6614875293465,-0.00393525599633016,1,13.9133680555556,29.9
2.86666666666667,11.8189155435787,35.4730837249325,6.65755312941499,-0.00393439993150491,1,13.9133680555556,29.9
2.9,11.8190940727753,35.6949365265357,6.65361939589501,-0.00393373351998694,1,13.9133680555556,29.9
2.93333333333333,11.8192370557676,35.9166582391807,6.64968623133707,-0.00393316455793347,1,13.9133680555556,29.9
2.96666666666667,11.8193582579712,36.1382488684068,6.64575360319492,-0.003932628142155,1,13.9133680555556,29.9
3,11.8194746090257,36.359708422582,6.64182160091373,-0.00393200228119017,1,13.9133680555556,29.9
3.03333333333333,11.8196037580185,36.5810369151363,6.6378903578228,-0.00393124309093285,1,13.9133680555556,29.9
3.06666666666667,11.8197686170355,36.8022343572714,6.63396007297763,-0.00393028484516833,1,13.9133680555556,29.9
3.1,11.8199980812347,37.023300753177,6.63003117289898,-0.00392890007864821,1,13.9133680555556,29.9
3.13333333333333,11.820320582434,37.244236098299,6.62610411935087,-0.00392705354811174,1,13.9133680555556,29.9
3.16666666666667,11.8207583539022,37.4650403758753,6.62217907086659,-0.00392504848427233,1,13.9133680555556,29.9
3.2,11.8213240780033,37.6857135565922,6.61825570817822,-0.00392336268836946,1,13.9133680555556,29.9
3.23333333333333,11.8220194894549,37.9062556058083,6.61433329853903,-0.00392240963919832,1,13.9133680555556,29.9
3.26666666666667,11.8228367339596,38.1266664958496,6.61041118266005,-0.0039221158789795,1,13.9133680555556,29.9
3.3,11.8237638749725,38.3469462124371,6.60648895359799,-0.00392222906205486,1,13.9133680555556,29.9
3.33333333333333,11.8247851960878,38.5670947653388,6.60256639226152,-0.00392256133646907,1,13.9133680555556,29.9
3.36666666666667,11.8258838982226,38.7871121891632,6.5986437052326,-0.00392268702892551,1,13.9133680555556,29.9
3.4,11.8270464412018,39.0069985307822,6.59472129836912,-0.00392240686348266,1,13.9133680555556,29.9
3.43333333333333,11.828263029312,39.2267538405081,6.59079948726725,-0.00392181110186129,1,13.9133680555556,29.9
3.46666666666667,11.8295269927037,39.446378166621,6.58687847331989,-0.00392101394736155,1,13.9133680555556,29.9
