Time,x_ego,y_ego,velocity,acceleration,action,x_ped,y_ped
0,11.8,15.9,7,0,1,15.5,29.9
0.0333333333333333,11.8000016887344,16.1332703793933,6.99615578093914,-0.00384421906085919,1,15.5,29.9
0.0666666666666667,11.8000130990848,16.3664065987637,6.99196949168822,-0.00418628925092168,1,15.5,29.9
0.1,11.8000443440673,16.5994007547533,6.98769508373338,-0.00427440795483491,1,15.5,29.9
0.133333333333333,11.8001063453148,16.8322537823386,6.98349795236481,-0.00419713136857514,1,15.5,29.9
0.166666666666667,11.8002123136176,17.0649678688049,6.97935656216754,-0.00414139019727333,1,15.5,29.9
0.2,11.8003739780111,17.2975445842598,6.97525546310113,-0.00410109906640699,1,15.5,29.9
0.233333333333333,11.8006010220118,17.529985053966,6.97118355706752,-0.00407190603361052,1,15.5,29.9
0.266666666666667,11.8009006282041,17.7622900824508,6.96713279870836,-0.00405075835916247,1,15.5,29.9
0.3,11.801275323744,17.9944602448519,6.96309732042627,-0.00403547828208151,1,15.5,29.9
0.333333333333333,11.8017240670609,18.2264959539233,6.95907290168385,-0.00402441874242765,1,15.5,29.9
0.366666666666667,11.8022438204514,18.4583975085176,6.95505654159701,-0.00401636008684125,1,15.5,29.9
0.4,11.8028306353905,18.6901651281107,6.95104612690435,-0.00401041469265717,1,15.5,29.9
0.433333333333333,11.8034803297734,18.9217989769304,6.9470401764162,-0.00400595048814711,1,15.5,29.9
0.466666666666667,11.8041888750313,19.1532991805548,6.94303765126826,-0.00400252514794364,1,15.5,29.9
0.5,11.8049526068487,19.3846658372071,6.93903781966045,-0.0039998316078087,1,15.5,29.9
0.533333333333333,11.8057683443469,19.6158990253869,6.93504016345733,-0.00399765620311943,1,15.5,29.9
0.566666666666667,11.8066334660921,19.8469988090078,6.9310443146538,-0.00399584880352855,1,15.5,29.9
0.6,11.8075459597038,20.0779652408612,6.92705001192301,-0.00399430273079293,1,15.5,29.9
0.633333333333333,11.808504441941,20.3087983649948,6.92305707019993,-0.00399294172307574,1,15.5,29.9
0.666666666666667,11.8095081393134,20.5394982184211,6.91906535872771,-0.00399171147222077,1,15.5,29.9
0.7,11.8105568228287,20.7700648324498,6.91507478484612,-0.00399057388159019,1,15.5,29.9
0.733333333333333,11.8116499065332,21.0004982365861,6.91108519236772,-0.0039895924783977,1,15.5,29.9
0.766666666666667,11.8127845136295,21.2307984669768,6.90709650674804,-0.00398868561968069,1,15.5,29.9
0.8,11.81395859831,21.4609655572597,6.90310876659831,-0.0039877401497348,1,15.5,29.9
0.833333333333333,11.8151714192757,21.6909995362163,6.89912198996678,-0.00398677663152647,1,15.5,29.9
0.866666666666667,11.8164230512147,21.9209004288411,6.89513617645208,-0.00398581351470639,1,15.5,29.9
0.9,11.8177139727577,22.1506682575688,6.89115131316577,-0.00398486328630998,1,15.5,29.9
0.933333333333333,11.8190447754646,22.380303043364,6.88716738094042,-0.00398393222534565,1,15.5,29.9
0.966666666666667,11.8204159985295,22.6098048065004,6.88318435930335,-0.0039830216370742,1,15.5,29.9
1,11.821828066624,22.8391735669945,6.87920222986475,-0.00398212943859821,1,15.5,29.9
1.03333333333333,11.8232812951066,23.0684093448172,6.8752209869456,-0.00398124291914659,1,15.5,29.9
1.06666666666667,11.8247759259733,23.2975121614212,6.87124072929934,-0.00398025764626109,1,15.5,29.9
1.1,11.8263121656644,23.5264820442095,6.86726169903452,-0.00397903026481483,1,15.5,29.9
1.13333333333333,11.8278902076636,23.7553190298843,6.86328420205473,-0.0039774969797941,1,15.5,29.9
1.16666666666667,11.8295094055545,23.9840231704784,6.85930846821877,-0.00397573383596317,1,15.5,29.9
1.2,11.831166378728,24.2125945454259,6.85533476288512,-0.00397370533365127,1,15.5,29.9
1.23333333333333,11.8328576212136,24.4410332464962,6.85136333648364,-0.00397142640147408,1,15.5,29.9
1.26666666666667,11.8345775145655,24.6693393893936,6.84739435776552,-0.00396897871812207,1,15.5,29.9
1.3,11.8363176763233,24.8975131182422,6.84342794793833,-0.00396640982718566,1,15.5,29.9
1.33333333333333,11.8380661417053,25.1255546114121,6.83946430374832,-0.0039636441900095,1,15.5,29.9
1.36666666666667,11.8398113596075,25.3534640539626,6.83550368995412,-0.00396061379420587,1,15.5,29.9
1.4,11.8415441807676,25.5812416206584,6.83154634367464,-0.00395734627948219,1,15.5,29.9
1.43333333333333,11.8432594465837,25.808887461117,6.8275923727983,-0.00395397087633409,1,15.5,29.9
1.46666666666667,11.8449531576221,26.0364017171022,6.82364181963276,-0.0039505531655406,1,15.5,29.9
1.5,11.8466243139505,26.2637845084211,6.81969469553475,-0.00394712409800757,1,15.5,29.9
1.53333333333333,11.8482744238927,26.491035935988,6.81575097352573,-0.00394372200902016,1,15.5,29.9
1.56666666666667,11.8499063776859,26.7181560901671,6.81181062364144,-0.00394034988429048,1,15.5,29.9
1.6,11.8515236640934,26.9451450568628,6.80787362595607,-0.00393699768537381,1,15.5,29.9
1.63333333333333,11.8531298672199,27.1720029214513,6.80393997092978,-0.0039336550262874,1,15.5,29.9
1.66666666666667,11.8547283621933,27.398729771063,6.80000965539077,-0.00393031553901491,1,15.5,29.9
1.7,11.8563229586719,27.6253256899685,6.7960826743963,-0.0039269809944722,1,15.5,29.9
1.73333333333333,11.8579196643893,27.8517907469815,6.79215903001735,-0.00392364437894788,1,15.5,29.9
1.76666666666667,11.8595232405841,28.078125019735,6.78823872946874,-0.00392030054860726,1,15.5,29.9
1.8,11.8611373135605,28.3043285936181,6.7843217759435,-0.00391695352524479,1,15.5,29.9
1.83333333333333,11.8627665467378,28.5304015461429,6.78040817328384,-0.00391360265965446,1,15.5,29.9
1.86666666666667,11.8644146556577,28.7563439608059,6.77649792530795,-0.00391024797589079,1,15.5,29.9
1.9,11.8660860236562,28.9821559153602,6.77259103109596,-0.00390689421198598,1,15.5,29.9
1.93333333333333,11.8677837708581,29.2078374953995,6.76868748695343,-0.00390354414253213,1,15.5,29.9
1.96666666666667,11.8695114487052,29.4333887820621,6.76478728158802,-0.00390020536541247,1,15.5,29.9
2,11.8712706558876,29.6588098692676,6.76089037247432,-0.00389690911369645,1,15.5,29.9
2.03333333333333,11.8730610760376,29.8841008640124,6.75699671791458,-0.00389365455974122,1,15.5,29.9
2.06666666666667,11.8748812975118,30.1092618810458,6.75310628729252,-0.00389043062205729,1,15.5,29.9
2.1,11.8767294260075,30.3342930388568,6.74921906359136,-0.0038872237011649,1,15.5,29.9
2.13333333333333,11.8786043030855,30.5591944506293,6.74533508459965,-0.00388397899170645,1,15.5,29.9
2.16666666666667,11.880507590668,30.7839662076283,6.7414543687699,-0.00388071582975336,1,15.5,29.9
2.2,11.8824405111961,31.0086084036698,6.73757688176278,-0.00387748700712276,1,15.5,29.9
2.23333333333333,11.8844032270226,31.2331211402674,6.73370259460261,-0.0038742871601638,1,15.5,29.9
2.26666666666667,11.886395210417,31.4575045241292,6.72983148515104,-0.00387110945156977,1,15.5,29.9
2.3,11.8884155746978,31.6817586647828,6.72596353832515,-0.00386794682589198,1,15.5,29.9
2.33333333333333,11.890463331764,31.9058836726231,6.72209874484803,-0.00386479347712498,1,15.5,29.9
2.36666666666667,11.8925375637457,32.1298796575232,6.71823709910299,-0.00386164574503756,1,15.5,29.9
2.4,11.8946375141489,32.3537467280183,6.7143785968721,-0.00385850223088813,1,15.5,29.9
2.43333333333333,11.8967626151817,32.5774849909761,6.71052323354379,-0.00385536332831293,1,15.5,29.9
2.46666666666667,11.8989124727815,32.8010945516138,6.7066710030372,-0.00385223050659178,1,15.5,29.9
2.5,11.9010868302746,33.0245755137114,6.70282189740821,-0.00384910562898888,1,15.5,29.9
2.53333333333333,11.9032855273381,33.2479279798899,6.69897590695011,-0.0038459904581023,1,15.5,29.9
2.56666666666667,11.9055084649478,33.471152051785,6.69513300878543,-0.0038428981646712,1,15.5,29.9
2.6,11.907755581017,33.6942478283945,6.69129307286477,-0.00383993592066112,1,15.5,29.9
2.63333333333333,11.9100268367224,33.917215403065,6.68745593855918,-0.00383713430559052,1,15.5,29.9
2.66666666666667,11.9123222106794,34.1400548650063,6.68362152167238,-0.00383441688680097,1,15.5,29.9
2.7,11.9146416970145,34.3627663000287,6.67978969101534,-0.00383183065703818,1,15.5,29.9
2.73333333333333,11.9169853038755,34.5853497889018,6.67596031534785,-0.00382937566749408,1,15.5,29.9
2.76666666666667,11.9193530503175,34.807805409594,6.67213336330349,-0.00382695204435457,1,15.5,29.9
2.8,11.9217449609634,35.0301332400778,6.66830886377006,-0.00382449953343844,1,15.5,29.9
2.83333333333333,11.9241610591251,35.2523333598148,6.66448687295499,-0.00382199081507029,1,15.5,29.9
2.86666666666667,11.9266013598178,35.4744058503941,6.66066745528023,-0.00381941767475613,1,15.5,29.9
2.9,11.9290658641951,35.6963507956798,6.65685067293563,-0.00381678234459493,1,15.5,29.9
2.93333333333333,11.9315545565288,35.9181682816792,6.65303658072812,-0.00381409220751472,1,15.5,29.9
2.96666666666667,11.9340674041752,36.1398583964104,6.64922524616406,-0.00381133456406424,1,15.5,29.9
3,11.9366043602797,36.3614212332763,6.64541696964331,-0.00380827652074522,1,15.5,29.9
3.03333333333333,11.9391653684413,36.5828569036307,6.64161254304267,-0.00380442660064073,1,15.5,29.9
3.06666666666667,11.9417503681659,36.8041655536483,6.6378132419736,-0.00379930106906556,1,15.5,29.9
3.1,11.9443592999394,37.0253473791455,6.63402077314048,-0.00379246883312856,1,15.5,29.9
3.13333333333333,11.9469921091081,37.2464026410063,6.63023735993506,-0.0037834132054142,1,15.5,29.9
3.16666666666667,11.9496487481698,37.4673316851521,6.62646589846107,-0.0037714614739901,1,15.5,29.9
3.2,11.9523291774125,37.6881349627995,6.622709731551,-0.00375616691006808,1,15.5,29.9
3.23333333333333,11.9550333640613,37.9088130368309,6.61897214324346,-0.00373758830753879,1,15.5,29.9
3.26666666666667,11.9577612804306,38.1293665724008,6.61525591651302,-0.0037162267304458,1,15.5,29.9
3.3,11.9605129016664,38.3497963135055,6.61156295054481,-0.00369296596820501,1,15.5,29.9
3.33333333333333,11.9632882042786,38.5701031062589,6.60790273940323,-0.00366021114158244,1,15.5,29.9
3.36666666666667,11.9660872595841,38.790295828323,6.60504930244014,-0.00285343696309326,1,15.5,29.9
3.4,11.968910025332,39.0104404835158,6.60540785028629,0.000358547846151858,1,15.5,29.9
3.43333333333333,11.9717546436891,39.2306691076305,6.61016740252898,0.00475955224268798,1,15.5,29.9
3.46666666666667,11.9746194068312,39.4511312764162,6.61940456939626,0.00923716686727971,1,15.5,29.9
