Time,x_ego,y_ego,velocity,acceleration,action,x_ped,y_ped
0,11.8,8.9,7,0,1,15.5,29.9
0.0333333333333333,11.8000041796125,9.13327037938785,6.99615578816176,-0.00384421183823669,1,15.5,29.9
0.0666666666666667,11.8000303314699,9.36640659855808,6.99196956641274,-0.00418622174902605,1,15.5,29.9
0.1,11.8000926098639,9.59940075300012,6.98769531271503,-0.00427425369770873,1,15.5,29.9
0.133333333333333,11.8001983545981,9.83225377515495,6.98349833673929,-0.00419697597573787,1,15.5,29.9
0.166666666666667,11.8003501253732,10.0649678497707,6.97935694703285,-0.00414138970643929,1,15.5,29.9
0.2,11.8005475247231,10.2975445470903,6.97525557468853,-0.00410137234432195,1,15.5,29.9
0.233333333333333,11.8007885944745,10.5299849978611,6.97118306873924,-0.00407250594928765,1,15.5,29.9
0.266666666666667,11.801070739625,10.7622900188979,6.96713145698599,-0.00405161175325475,1,15.5,29.9
0.3,11.8013912463857,10.9944602028902,6.96309504433922,-0.00403641264676224,1,15.5,29.9
0.333333333333333,11.8017475156913,11.2264959824836,6.95906976104049,-0.00402528329873153,1,15.5,29.9
0.366666666666667,11.8021371394093,11.4583976759489,6.9550526957372,-0.00401706530329626,1,15.5,29.9
0.4,11.8025579201775,11.6901655197135,6.95104176336867,-0.00401093236852201,1,15.5,29.9
0.433333333333333,11.8030078951068,11.921799691522,6.94703546967681,-0.00400629369186767,1,15.5,29.9
0.466666666666667,11.8034853836359,12.1533003269063,6.94303274401881,-0.00400272565800019,1,15.5,29.9
0.5,11.8039890506013,12.3846675308923,6.93903282009106,-0.0039999239277444,1,15.5,29.9
0.533333333333333,11.8045179612248,12.6159013863282,6.93503515024424,-0.00399766984681804,1,15.5,29.9
0.566666666666667,11.8050716043341,12.8470019598425,6.93103934353105,-0.00399580671319111,1,15.5,29.9
0.6,11.8056498695,13.0779693061539,6.92704512077658,-0.00399422275447581,1,15.5,29.9
0.633333333333333,11.8062529773089,13.308803471241,6.92305228207517,-0.0039928387014081,1,15.5,29.9
0.666666666666667,11.8068813745532,13.5395044947211,6.91906068346958,-0.00399159860558829,1,15.5,29.9
0.7,11.8075356141409,13.7700724116654,6.91507022042285,-0.00399046304672712,1,15.5,29.9
0.733333333333333,11.8082162415235,14.000507253993,6.91108081626878,-0.00398940415407001,1,15.5,29.9
0.766666666666667,11.8089237058809,14.2308090515282,6.9070924142552,-0.00398840201358386,1,15.5,29.9
0.8,11.8096583069933,14.4609778327761,6.90310497212931,-0.00398744212589452,1,15.5,29.9
0.833333333333333,11.8104201800806,14.6910136254557,6.89911845847121,-0.00398651365809588,1,15.5,29.9
0.866666666666667,11.8112093131625,14.9209164568305,6.89513285017505,-0.00398560829616379,1,15.5,29.9
0.9,11.8120255862864,15.1506863538828,6.8911481306315,-0.00398471954354207,1,15.5,29.9
0.933333333333333,11.8128688199699,15.3803233433779,6.88716428830364,-0.00398384232785975,1,15.5,29.9
0.966666666666667,11.8137388212368,15.6098274518672,6.88318131551579,-0.00398297278784998,1,15.5,29.9
1,11.8146354188273,15.8391987056685,6.87919920738296,-0.00398210813283661,1,15.5,29.9
1.03333333333333,11.8155584834096,16.0684371308543,6.87521796088064,-0.00398124650232035,1,15.5,29.9
1.06666666666667,11.8165079327474,16.2975427532613,6.87123757408598,-0.00398038679466151,1,15.5,29.9
1.1,11.8174837249407,16.5265155985263,6.86725804561714,-0.0039795284688342,1,15.5,29.9
1.13333333333333,11.8184858445799,16.7553556921403,6.86327937427471,-0.00397867134243057,1,15.5,29.9
1.16666666666667,11.819514286912,16.9840630595106,6.85930155886187,-0.0039778154128447,1,15.5,29.9
1.2,11.820569044197,17.2126377260167,6.85532459814065,-0.00397696072121523,1,15.5,29.9
1.23333333333333,11.8216500968229,17.4410797170523,6.85134849087295,-0.00397610726769759,1,15.5,29.9
1.26666666666667,11.8227574099769,17.6693890580468,6.84737323589698,-0.00397525497597062,1,15.5,29.9
1.3,11.8238909351687,17.8975657744676,6.84339883219986,-0.0039744036971241,1,15.5,29.9
1.33333333333333,11.8250506149481,18.1256098918077,6.83942527896115,-0.00397355323871285,1,15.5,29.9
1.36666666666667,11.8262363888253,18.3535214355649,6.83545257555747,-0.00397270340367939,1,15.5,29.9
1.4,11.8274481986216,18.5813004312215,6.83148072153152,-0.00397185402594946,1,15.5,29.9
1.43333333333333,11.8286859920553,18.808946904228,6.82750971653778,-0.00397100499373781,1,15.5,29.9
1.46666666666667,11.8299497240849,19.0364608799968,6.82353956028083,-0.00397015625695296,1,15.5,29.9
1.5,11.8312393561894,19.2638423839034,6.81957025246087,-0.0039693078199603,1,15.5,29.9
1.53333333333333,11.83255485422,19.4910914412962,6.81560179273651,-0.00396845972435678,1,15.5,29.9
1.56666666666667,11.8338961856547,19.7182080775087,6.81163418070864,-0.00396761202786511,1,15.5,29.9
1.6,11.8352633170417,19.9451923178723,6.80766741592371,-0.00396676478493063,1,15.5,29.9
1.63333333333333,11.8366562121946,20.1720441877267,6.80370149789069,-0.00396591803301938,1,15.5,29.9
1.66666666666667,11.8380748313997,20.3987637124246,6.79973642610434,-0.00396507178635463,1,15.5,29.9
1.7,11.8395183094263,20.6253509219844,6.79577214769297,-0.00396427841136671,1,15.5,29.9
1.73333333333333,11.840983088157,20.8518058623179,6.79180864716556,-0.00396350052741568,1,15.5,29.9
1.76666666666667,11.8424663035,21.078128576763,6.78784597001279,-0.0039626771527681,1,15.5,29.9
1.8,11.8439664325521,21.3043191017449,6.78388414517302,-0.00396182483976837,1,15.5,29.9
1.83333333333333,11.845482909638,21.5303774683364,6.77992318674403,-0.0039609584289888,1,15.5,29.9
1.86666666666667,11.8470157736531,21.7563037039225,6.77596309848143,-0.00396008826260275,1,15.5,29.9
1.9,11.8485653917654,21.9820978336413,6.77200387823721,-0.00395922024422202,1,15.5,29.9
1.93333333333333,11.8501322717783,22.2077598814444,6.76804552125024,-0.00395835698696434,1,15.5,29.9
1.96666666666667,11.8517169528424,22.4332898707662,6.76408802220807,-0.00395749904216824,1,15.5,29.9
2,11.8533199526254,22.6586878248875,6.76013137635051,-0.00395664585756439,1,15.5,29.9
2.03333333333333,11.8549417469768,22.8839537671122,6.75617557990877,-0.0039557964417396,1,15.5,29.9
2.06666666666667,11.856582762554,23.1090877208664,6.75222063011594,-0.00395494979283217,1,15.5,29.9
2.1,11.8582433704106,23.3340897097903,6.74826652497881,-0.00395410513712413,1,15.5,29.9
2.13333333333333,11.8599238761938,23.5589597578504,6.74431326296836,-0.00395326201045521,1,15.5,29.9
2.16666666666667,11.8616245083225,23.7836978894623,6.74036084274713,-0.00395242022122755,1,15.5,29.9
2.2,11.8633454084111,24.0083041295948,6.73640926300278,-0.00395157974435456,1,15.5,29.9
2.23333333333333,11.865086628367,24.232778503825,6.73245852240565,-0.00395074059712375,1,15.5,29.9
2.26666666666667,11.8668481368052,24.4571210383214,6.72850861966737,-0.00394990273828455,1,15.5,29.9
2.3,11.8686298347751,24.6813317597542,6.72455955365224,-0.00394906601513245,1,15.5,29.9
2.33333333333333,11.8704315783171,24.905410695146,6.72061132348758,-0.00394823016465295,1,15.5,29.9
2.36666666666667,11.872253203778,25.129357871693,6.71666392862922,-0.0039473948583657,1,15.5,29.9
2.4,11.8740945514369,25.3531733165887,6.71271736885966,-0.00394655976955338,1,15.5,29.9
2.43333333333333,11.8759554837401,25.5768570568806,6.70877164422095,-0.0039457246387169,1,15.5,29.9
2.46666666666667,11.8778358959549,25.8004091193792,6.70482675490302,-0.00394488931792392,1,15.5,29.9
2.5,11.8797357188434,26.0238295306258,6.70088270111854,-0.00394405378448504,1,15.5,29.9
2.53333333333333,11.8816549145525,26.2471183169138,6.69693948299329,-0.00394321812525078,1,15.5,29.9
2.56666666666667,11.8835934679943,26.4702755043477,6.69299710049299,-0.00394238250029844,1,15.5,29.9
2.6,11.8855513763949,26.6933011189206,6.68905555339476,-0.00394154709823358,1,15.5,29.9
2.63333333333333,11.8875286394599,26.9161951865907,6.68511484130019,-0.0039407120945647,1,15.5,29.9
2.66666666666667,11.8895252519229,27.1389577333422,6.6811749636789,-0.00393987762128667,1,15.5,29.9
2.7,11.891541199334,27.3615887852213,6.67723591992733,-0.00393904375157028,1,15.5,29.9
2.73333333333333,11.8935764570725,27.5840883683476,6.6732977094277,-0.00393821049963616,1,15.5,29.9
2.76666666666667,11.8956309918949,27.8064565089037,6.66936033159512,-0.00393737783258263,1,15.5,29.9
2.8,11.8977047649681,28.0286932331117,6.66542378590593,-0.00393654568918134,1,15.5,29.9
2.83333333333333,11.899797735289,28.2507985672051,6.66148807190576,-0.00393571400017745,1,15.5,29.9
2.86666666666667,11.9019098625985,28.4727725374047,6.6575531892004,-0.00393488270535247,1,15.5,29.9
2.9,11.9040411092467,28.6946151699011,6.65361913743602,-0.00393405176438577,1,15.5,29.9
2.93333333333333,11.9061914408517,28.9163264908494,6.64968591627548,-0.00393322116053341,1,15.5,29.9
2.96666666666667,11.9083608259184,29.137906526371,6.64575352537742,-0.00393239089806929,1,15.5,29.9
3,11.9105492347865,29.3593553025632,6.64182196438184,-0.00393156099557679,1,15.5,29.9
3.03333333333333,11.9127566383442,29.5806728455102,6.63789123290419,-0.00393073147764866,1,15.5,29.9
3.06666666666667,11.9149830068904,29.8018591812938,6.63396133053689,-0.00392990236729585,1,15.5,29.9
3.1,11.9172283094001,30.0229143360003,6.63003225685624,-0.00392907368065565,1,15.5,29.9
3.13333333333333,11.9194925132856,30.243838335723,6.62610401143161,-0.00392824542462922,1,15.5,29.9
3.16666666666667,11.921775584605,30.4646312065606,6.62217659383428,-0.00392741759733273,1,15.5,29.9
3.2,11.9240774885691,30.6852929746127,6.61825000364373,-0.00392659019054964,1,15.5,29.9
3.23333333333333,11.9263981901603,30.9058236659735,6.61432424045058,-0.00392576319314308,1,15.5,29.9
3.26666666666667,11.9287376546908,31.126223306727,6.6103993038562,-0.00392493659438564,1,15.5,29.9
3.3,11.9310958481779,31.3464919229424,6.60647519346976,-0.00392411038643647,1,15.5,29.9
3.33333333333333,11.9334727374869,31.5666295406734,6.60255190890419,-0.00392328456556879,1,15.5,29.9
3.36666666666667,11.9358682902561,31.7866361859577,6.59862944977207,-0.00392245913212186,1,15.5,29.9
3.4,11.9382824746669,32.0065118848202,6.59470781568255,-0.00392163408952317,1,15.5,29.9
3.43333333333333,11.9407152591454,32.2262566632753,6.59078700623979,-0.00392080944275985,1,15.5,29.9
3.46666666666667,11.9431666120781,32.4458705473301,6.58686702104296,-0.00391998519682435,1,15.5,29.9
3.5,11.9456365016036,32.6653535629864,6.58294785968746,-0.00391916135550563,1,15.5,29.9
3.53333333333333,11.9481248955114,32.8847057362421,6.57902952176673,-0.0039183379207266,1,15.5,29.9
3.56666666666667,11.9506317612474,33.103927093091,6.5751120068743,-0.00391751489242953,1,15.5,29.9
3.6,11.953157066,33.3230176595223,6.57119531460531,-0.00391669226899438,1,15.5,29.9
3.63333333333333,11.9557007768302,33.5419774615186,6.56727944455742,-0.00391587004788452,1,15.5,29.9
3.66666666666667,11.9582628608047,33.7608065250553,6.56336439633103,-0.00391504822639188,1,15.5,29.9
3.7,11.9608432851023,33.9795048760988,6.55945016952879,-0.00391422680224007,1,15.5,29.9
3.73333333333333,11.9634420170735,34.198072540606,6.55553676375484,-0.00391340577395294,1,15.5,29.9
3.76666666666667,11.9660590242524,34.4165095445244,6.55162417861387,-0.00391258514097093,1,15.5,29.9
3.8,11.968694274327,34.634815913792,6.54771241371035,-0.0039117649035143,1,15.5,29.9
3.83333333333333,11.9713477350863,34.852991674338,6.54380146864805,-0.0039109450623025,1,15.5,29.9
3.86666666666667,11.9740193743603,35.0710368520837,6.53989134302983,-0.0039101256182219,1,15.5,29.9
3.9,11.9767091599699,35.2889514729425,6.5359820364578,-0.00390930657203103,1,15.5,29.9
3.93333333333333,11.9794170596948,35.5067355628211,6.53207354853363,-0.00390848792416332,1,15.5,29.9
3.96666666666667,11.9821430412638,35.7243891476189,6.52816587885899,-0.00390766967463918,1,15.5,29.9
4,11.9848870723643,35.9419122532284,6.52425902703588,-0.00390685182311223,1,15.5,29.9
4.03333333333333,11.9876491206645,36.1593049055345,6.5203529926669,-0.00390603436897941,1,15.5,29.9
4.06666666666667,11.9904291538394,36.3765671304148,6.51644777535538,-0.00390521731152305,1,15.5,29.9
4.1,11.9932255979581,36.5936989726971,6.51254329482245,-0.00390448053293202,1,15.5,29.9
4.13333333333333,11.996030259793,36.8107005596803,6.5086394607968,-0.00390383402565142,1,15.5,29.9
4.16666666666667,11.9988287489398,37.0275720983503,6.50473627449057,-0.00390318630622399,1,15.5,29.9
4.2,12.0015988032332,37.2443138973339,6.50083387458136,-0.00390239990920893,1,15.5,29.9
4.23333333333333,12.0043094847918,37.4609263753322,6.49693273187329,-0.00390114270807729,1,15.5,29.9
4.26666666666667,12.0069314206174,37.6774099260133,6.49303337465773,-0.00389935721555634,1,15.5,29.9
4.3,12.0094455725971,37.8937647988197,6.48913586126091,-0.00389751339682221,1,15.5,29.9
4.33333333333333,12.0118446637377,38.1099910780729,6.48523976701343,-0.00389609424747928,1,15.5,29.9
4.36666666666667,12.0141297791007,38.3260887308282,6.48134453665152,-0.00389523036191353,1,15.5,29.9
4.4,12.0163076127123,38.5420576511226,6.47744963393588,-0.00389490271563098,1,15.5,29.9
4.43333333333333,12.018389662696,38.7578976813212,6.47355478461649,-0.0038948493193951,1,15.5,29.9
4.46666666666667,12.0203875506122,38.9736086750735,6.46966005682781,-0.00389472778867717,1,15.5,29.9
4.5,12.0223114785634,39.1891905162817,6.46576561667447,-0.00389444015333851,1,15.5,29.9
4.53333333333333,12.024169323559,39.4046431264207,6.46187176054647,-0.00389385612799931,1,15.5,29.9
