Time,x_ego,y_ego,velocity,acceleration,action,x_ped,y_ped
0,11.8,8.9,7,0,1,15.5,29.9
0.0333333333333333,11.8000008865857,9.13327037939402,6.99615577991841,-0.0038442200815938,1,15.4972222222222,29.9
0.0666666666666667,11.8000064339571,9.36640659879987,6.99196947538242,-0.00418630453598645,1,15.4888888888889,29.9
0.1,11.8000196445433,9.59940075517657,6.98769500183712,-0.00427447354529598,1,15.475,29.9
0.133333333333333,11.8000420752732,9.83225378482839,6.983497685232,-0.0041973166051239,1,15.4555555555556,29.9
0.166666666666667,11.8000742691125,10.0649678788595,6.97935590372366,-0.00414178150833511,1,15.4305555555556,29.9
0.2,11.8001161417479,10.2975446154427,6.97525416149575,-0.00410174222791504,1,15.4,29.9
0.233333333333333,11.800167277807,10.5299851335513,6.97118135398893,-0.00407280750682126,1,15.3666666666667,29.9
0.266666666666667,11.8002271268323,10.762290257465,6.96712952401992,-0.00405182996900777,1,15.3333333333333,29.9
0.3,11.8002951131701,10.9944605859838,6.96309296986959,-0.00403655415032667,1,15.3,29.9
0.333333333333333,11.8003706855026,11.2264965563484,6.95906760593838,-0.00402536393121,1,15.2666666666667,29.9
0.366666666666667,11.800453333014,11.4583984900337,6.95505050461505,-0.00401710132333033,1,15.2333333333333,29.9
0.4,11.8005425895977,11.6901666255576,6.95103956806592,-0.0040109365491352,1,15.2,29.9
0.433333333333333,11.8006388358865,11.921801141783,6.94703330480217,-0.00400626326374365,1,15.1666666666667,29.9
0.466666666666667,11.8007459497168,12.1533021739102,6.94303065818139,-0.00400264662078875,1,15.1333333333333,29.9
0.5,11.8008707238283,12.3846698251914,6.93903087996168,-0.00399977821970943,1,15.1,29.9
0.533333333333333,11.8010206085055,12.6159041756645,6.9350334245722,-0.00399745538947371,1,15.0666666666667,29.9
0.566666666666667,11.8012010111593,12.847005288842,6.9310379024441,-0.00399552212810317,1,15.0333333333333,29.9
0.6,11.8014173246964,13.0779732152111,6.92704402453348,-0.003993877910621,1,15,29.9
0.633333333333333,11.8016733104828,13.3088079959341,6.92305158382425,-0.00399244070923022,1,14.9666666666667,29.9
0.666666666666667,11.8019731290589,13.5395096641662,6.91906042311419,-0.00399116071005512,1,14.9333333333333,29.9
0.7,11.8023188219915,13.7700782483644,6.91507038143757,-0.00399004167662476,1,14.9,29.9
0.733333333333333,11.8027103371088,14.0005137746273,6.91108133904907,-0.00398904238849873,1,14.8666666666667,29.9
0.766666666666667,11.8031463560692,14.2308162681613,6.90709321665672,-0.00398812239234658,1,14.8333333333333,29.9
0.8,11.8036249000207,14.4609857542385,6.90310596852163,-0.00398724813509421,1,14.8,29.9
0.833333333333333,11.8041437379597,14.6910222586831,6.89911957254915,-0.00398639597247641,1,14.7666666666667,29.9
0.866666666666667,11.8047006451911,14.9209258079909,6.89513402092716,-0.00398555162199088,1,14.7333333333333,29.9
0.9,11.8052935612515,15.1506964292077,6.8911493132231,-0.00398470770406245,1,14.7,29.9
0.933333333333333,11.80592068624,15.380334149675,6.8871654521986,-0.00398386102449599,1,14.6666666666667,29.9
0.966666666666667,11.8065805396444,15.6098389967268,6.88318244169017,-0.00398301050843841,1,14.6333333333333,29.9
1,11.8072719923876,15.839210997398,6.87920028569179,-0.00398215599837037,1,14.6,29.9
1.03333333333333,11.8079942742182,16.0684501781854,6.87521898795584,-0.00398129773595368,1,14.5666666666667,29.9
1.06666666666667,11.8087469555042,16.2975565648924,6.87123855172578,-0.00398043623006394,1,14.5333333333333,29.9
1.1,11.8095299038417,16.5265301825712,6.86725897946864,-0.00397957225713963,1,14.5,29.9
1.13333333333333,11.8103440077995,16.7553710534371,6.86328033332243,-0.00397864614620502,1,14.4666666666667,29.9
1.16666666666667,11.8111937156561,16.9840791890378,6.85930270105742,-0.00397763226500913,1,14.4333333333333,29.9
1.2,11.812087203559,17.2126545872735,6.85532620165014,-0.00397649940728417,1,14.4,29.9
1.23333333333333,11.8130367674324,17.4410972282007,6.85135091096915,-0.00397529068099267,1,14.3666666666667,29.9
1.26666666666667,11.8140545025249,17.669407084285,6.84737681574367,-0.00397409522547143,1,14.3333333333333,29.9
1.3,11.8151501166128,17.8975841268366,6.84340379348338,-0.00397302226029339,1,14.3,29.9
1.33333333333333,11.8163273186991,18.1255415064512,6.83422163422587,-0.00918215925751209,1,14.2666666666667,29.9
1.36666666666667,11.8175817565057,18.3530194739718,6.81466439393594,-0.0195572402899264,3,14.2333333333333,29.9
1.4,11.8189042705403,18.5797009377469,6.78645559967083,-0.0282087942651099,3,14.2,29.9
1.43333333333333,11.8202850099641,18.8051823946176,6.74268653272943,-0.043769066941401,3,14.1666666666667,29.9
1.46666666666667,11.8217113191352,19.0290604329632,6.69026974739439,-0.0524167853350397,3,14.1333333333333,29.9
1.5,11.8231681349852,19.2511333760626,6.63439529063659,-0.0558744567578042,3,14.1,29.9
1.53333333333333,11.8246437379511,19.4713151240748,6.57680841292918,-0.0575868777074033,3,14.0666666666667,29.9
1.56666666666667,11.8261280434601,19.6895196054542,6.51576613631476,-0.061042276614427,3,14.0333333333333,29.9
1.6,11.827614008048,19.905574291548,6.44782523663775,-0.0679408996770041,3,14,29.9
1.63333333333333,11.8290973581336,20.1192489055324,6.37296515125607,-0.0748600853816859,3,13.9666666666667,29.9
1.66666666666667,11.830575861611,20.3303131979882,6.29120886973967,-0.0817562815163937,3,13.9333333333333,29.9
1.7,11.8320484132609,20.5385082490602,6.20081365294099,-0.0903952167986848,3,13.9,29.9
1.73333333333333,11.8335146932542,20.7435751778183,6.10352478375341,-0.0972888691875831,3,13.8666666666667,29.9
1.76666666666667,11.834975167582,20.9453129101411,6.00106556406198,-0.102459219691422,3,13.8333333333333,29.9
1.8,11.8364312002004,21.1436355772541,5.89862508974013,-0.102440474321853,3,13.8,29.9
1.83333333333333,11.8378841036279,21.338457329977,5.79101552845628,-0.107609561283848,3,13.7666666666667,29.9
1.86666666666667,11.8393343483772,21.5296055099916,5.67821587138382,-0.112799657072467,3,13.7333333333333,29.9
1.9,11.8407822785246,21.7169652555211,5.56371475075688,-0.11450112062694,3,13.7,29.9
1.93333333333333,11.8422281578005,21.900508559234,5.44923469387531,-0.114480056881569,3,13.6666666666667,29.9
1.96666666666667,11.8436717091898,22.0802361284466,5.33477585449113,-0.114458839384174,3,13.6333333333333,29.9
2,11.8451121295521,22.2561773801883,5.22206042844211,-0.112715426049025,3,13.6,29.9
2.03333333333333,11.8465481935018,22.4283907976668,5.11111005043909,-0.110950378003018,3,13.5666666666667,29.9
2.06666666666667,11.8479780106882,22.596906157672,5.00018056055072,-0.110929489888372,3,13.5333333333333,29.9
2.1,11.8493990066487,22.761695102404,4.88752792081828,-0.11265263973244,3,13.5,29.9
2.13333333333333,11.8508083339443,22.9227005714269,4.77317397080064,-0.114353950017642,3,13.4666666666667,29.9
2.16666666666667,11.852203038505,23.079836802911,4.65537481862146,-0.117799152179179,3,13.4333333333333,29.9
2.2,11.853579716687,23.232930540707,4.5305964831276,-0.124778335493854,3,13.4,29.9
2.23333333333333,11.8549349735392,23.3817764126517,4.40051124035222,-0.130085242775387,3,13.3666666666667,29.9
2.26666666666667,11.8562656467568,23.5261693010694,4.26342228535659,-0.13708895499563,3,13.3333333333333,29.9
2.3,11.8575687531042,23.6659054377528,4.12110796868785,-0.14231431666874,3,13.3,29.9
2.33333333333333,11.8588413916529,23.8007824013382,3.97187120563476,-0.149236763053083,3,13.2666666666667,29.9
2.36666666666667,11.8600806461828,23.9305984936548,3.81745275187418,-0.154418453760581,3,13.2333333333333,29.9
2.4,11.8612842260045,24.0552390188119,3.66133240019449,-0.156120351679695,3,13.2,29.9
2.43333333333333,11.8624504471273,24.1746761355801,3.50524211028413,-0.15609028991036,3,13.1666666666667,29.9
2.46666666666667,11.8635777646722,24.288910977585,3.34918878601028,-0.156053324273847,3,13.1333333333333,29.9
2.5,11.8646643169612,24.3979158051339,3.19143332609456,-0.157755459915723,3,13.1,29.9
2.53333333333333,11.8657087294485,24.5017207828268,3.03718925062487,-0.15424407546969,3,13.0666666666667,29.9
2.56666666666667,11.8667099334937,24.6003852283372,2.88299233920137,-0.154196911423501,3,13.0333333333333,29.9
2.6,11.8676664689501,24.6939107474974,2.72884384539756,-0.154148493803804,3,13,29.9
2.63333333333333,11.8685770212217,24.7822989825104,2.57474451182021,-0.154099333577352,3,12.9666666666667,29.9
2.66666666666667,11.8694404337487,24.8655515976997,2.42069475147042,-0.154049760349787,3,12.9333333333333,29.9
2.7,11.8702557083044,24.943670269363,2.26669478140358,-0.153999970066841,3,12.9,29.9
2.73333333333333,11.8710222801868,25.0166870033945,2.1146800478679,-0.152014733535678,3,12.8666666666667,29.9
2.76666666666667,11.8717402148952,25.0846884853282,1.96602721731752,-0.148652830550383,3,12.8333333333333,29.9
2.8,11.8724098198446,25.1477767696302,1.81993882898985,-0.146088388327674,3,12.8,29.9
2.83333333333333,11.8730313666491,25.2060416653123,1.67662014998854,-0.143318679001303,3,12.7666666666667,29.9
2.86666666666667,11.8736057502222,25.2596333061583,1.53952721804966,-0.137092931938887,3,12.7333333333333,29.9
2.9,11.8741344652957,25.3087593417188,1.40865957867323,-0.130867639376423,3,12.7,29.9
2.93333333333333,11.8746187932017,25.3535971737531,1.28221355573712,-0.126446022936116,3,12.6666666666667,29.9
2.96666666666667,11.8750597961429,25.3942933732412,1.1601340700211,-0.122079485716022,3,12.6333333333333,29.9
3,11.8754583062818,25.4309630312467,1.04060929839308,-0.119524771628019,3,12.6,29.9
3.03333333333333,11.8758152129098,25.4637206972787,0.925425567907485,-0.115183730485592,3,12.5666666666667,29.9
3.06666666666667,11.8761312146699,25.4926551374626,0.811210238417951,-0.114215329489534,3,12.5333333333333,29.9
3.1,11.8764067796733,25.517826081956,0.699585384069821,-0.111624854348131,3,12.5,29.9
3.13333333333333,11.8766426426339,25.5393175459614,0.59042796187336,-0.109157422196461,3,12.4666666666667,29.9
3.16666666666667,11.8768398220353,25.557240288174,0.48546774909182,-0.10496021278154,3,12.4333333333333,29.9
3.2,11.8769993670169,25.5717060085528,0.383004304423154,-0.102463444668666,3,12.4,29.9
3.23333333333333,11.8771220617952,25.5827971174229,0.282975629510879,-0.100028674912275,3,12.3666666666667,29.9
3.26666666666667,11.8772086717559,25.5905930765618,0.185291293908307,-0.0976843356025718,3,12.3333333333333,29.9
3.3,11.8772607846097,25.5952584317969,0.095193928500362,-0.090097365407945,3,12.3,29.9
3.33333333333333,11.8772805800522,25.5970191628083,0.0114886572034127,-0.0837052712969493,3,12.2666666666667,29.9
3.36666666666667,11.8772718779647,25.5962721207728,0.0336071545228153,0.0221184973194026,4,12.2333333333333,29.9
3.4,11.8772554382179,25.5951562169411,0.00268229633410041,-0.0309248581887149,3,12.2,29.9
3.43333333333333,11.8772554382179,25.5951562169411,0.00280864776821598,0.000126351434115567,5,12.1666666666667,29.9
3.46666666666667,11.8772554382179,25.5951562169411,0.00326912123683381,0.000460473468617832,5,12.1333333333333,29.9
3.5,11.8772554382179,25.5951562169411,0.00398820776879974,0.000719086531965934,5,12.1,29.9
3.53333333333333,11.8772554382179,25.5951562169411,0.00485758993057202,0.000869382161772275,5,12.0666666666667,29.9
3.56666666666667,11.8772554382179,25.5951562169411,0.00575377651048925,0.000896186579917227,5,12.0333333333333,29.9
3.6,11.8772554382179,25.5951562169411,0.00655417841968381,0.000800401909194562,5,12,29.9
3.63333333333333,11.8772554382179,25.5951562169411,0.00715051267655991,0.000596334256876097,5,11.9666666666667,29.9
3.66666666666667,11.8772554382179,25.5951562169411,0.00745882599753982,0.00030831332097991,5,11.9333333333333,29.9
3.7,11.8772554382179,25.5951562169411,0.00742581965615797,-3.30063413818459e-05,5,11.9,29.9
3.73333333333333,11.8772554382179,25.5951562169411,0.00703150642323169,-0.000394313232926284,5,11.8666666666667,29.9
3.76666666666667,11.8772554382179,25.5951562169411,0.00628851953702808,-0.000742986886203612,5,11.8333333333333,29.9
3.8,11.8772554382179,25.5951562169411,0.00523861128334204,-0.00104990825368603,5,11.8,29.9
3.83333333333333,11.8772554382179,25.5951562169411,0.00394702048385639,-0.00129159079948566,5,11.7666666666667,29.9
3.86666666666667,11.8772554382179,25.5951562169411,0.0024954558036488,-0.00145156468020759,5,11.7333333333333,29.9
3.9,11.8772554382179,25.5951562169411,0.000974442158386285,-0.00152101364526251,5,11.7,29.9
3.93333333333333,11.8772554382179,25.5951562169411,0.000524278769182552,-0.000450163389203733,5,11.6666666666667,29.9
3.96666666666667,11.8772554382179,25.5951562169411,0.00191470282446182,0.00139042405527926,5,11.6333333333333,29.9
4,11.8772554382179,25.5951562169411,0.00312241094237434,0.00120770811791252,5,11.6,29.9
4.03333333333333,11.8772554382179,25.5951562169411,0.00408899359726085,0.000966582654886508,5,11.5666666666667,29.9
4.06666666666667,11.8772554382179,25.5951562169411,0.00477488365677077,0.000685890059509925,5,11.5333333333333,29.9
4.1,11.8772554382179,25.5951562169411,0.00516056866226344,0.000385685005492672,5,11.5,29.9
4.13333333333333,11.8772554382179,25.5951562169411,0.00524627586345303,8.57072011895815e-05,5,11.4666666666667,29.9
4.16666666666667,11.8772554382179,25.5951562169411,0.00505032217656415,-0.000195953686888871,5,11.4333333333333,29.9
4.2,11.8772554382179,25.5951562169411,0.00460639294675884,-0.000443929229805309,5,11.4,29.9
4.23333333333333,11.8772554382179,25.5951562169411,0.00396005676224177,-0.000646336184517074,5,11.3666666666667,29.9
4.26666666666667,11.8772554382179,25.5951562169411,0.00316483953601599,-0.000795217226225781,5,11.3333333333333,29.9
4.3,11.8772554382179,25.5951562169411,0.00227817235692774,-0.000886667179088253,5,11.3,29.9
4.33333333333333,11.8772554382179,25.5951562169411,0.00135749824465269,-0.000920674112275047,5,11.2666666666667,29.9
4.36666666666667,11.8772554382179,25.5951562169411,0.000456777795568316,-0.000900720449084374,5,11.2333333333333,29.9
4.4,11.8772554382179,25.5951562169411,0.000376421966608398,-8.03558289599182e-05,5,11.2,29.9
4.43333333333333,11.8772554382179,25.5951562169411,0.00110313219571926,0.000726710229110858,5,11.1666666666667,29.9
4.46666666666667,11.8772554382179,25.5951562169411,0.0016944183757901,0.000591286180070844,5,11.1333333333333,29.9
4.5,11.8772554382179,25.5951562169411,0.00213204381198121,0.000437625436191115,5,11.1,29.9
4.53333333333333,11.8772554382179,25.5951562169411,0.00240840686330442,0.000276363051323201,5,11.0666666666667,29.9
4.56666666666667,11.8772554382179,25.5951562169411,0.00252583943768969,0.000117432574385274,5,11.0333333333333,29.9
4.6,11.8772554382179,25.5951562169411,0.00249538444795491,-3.04549897347786e-05,5,11,29.9
4.63333333333333,11.8772554382179,25.5951562169411,0.00233518864605153,-0.000160195801903379,5,10.9666666666667,29.9
4.66666666666667,11.8772554382179,25.5951562169411,0.00206865481817133,-0.000266533827880199,5,10.9333333333333,29.9
4.7,11.8772554382179,25.5951562169411,0.00172249472794507,-0.000346160090226259,5,10.9,29.9
4.73333333333333,11.8772554382179,25.5951562169411,0.00132481295658908,-0.000397681771355994,5,10.8666666666667,29.9
4.76666666666667,11.8772554382179,25.5951562169411,0.000903333775988179,-0.000421479180600901,5,10.8333333333333,29.9
4.8,11.8772554382179,25.5951562169411,0.000483860451720131,-0.000419473324268048,5,10.8,29.9
4.83333333333333,11.8772554382179,25.5951562169411,8.90309782158206e-05,-0.00039482947350431,5,10.7666666666667,29.9
4.86666666666667,11.8772554382179,25.5951562169411,0.000262591846628653,0.000173560868412833,5,10.7333333333333,29.9
4.9,11.8772554382179,25.5951562169411,0.000557083163068821,0.000294491316440167,5,10.7,29.9
4.93333333333333,11.8772554382179,25.5951562169411,0.000785381365106054,0.000228298202037234,5,10.6666666666667,29.9
4.96666666666667,11.8772554382179,25.5951562169411,0.000943204811056382,0.000157823445950328,5,10.6333333333333,29.9
5,11.8772554382179,25.5951562169411,0.000932091138482325,-1.1113672574057e-05,5,10.6,29.9
5.03333333333333,11.8772574330949,25.5953637380774,0.00776639736213162,0.00683430622364929,5,10.5666666666667,29.9
5.06666666666667,11.8772606616659,25.5956996054941,0.0124140739842444,0.00464767662211281,5,10.5333333333333,29.9
5.1,11.8772653748637,25.5961898494576,0.0169934375960535,0.00457936361180904,5,10.5,29.9
5.13333333333333,11.8772720978598,25.5968889881554,0.0249367782743512,0.00794334067829776,5,10.4666666666667,29.9
5.16666666666667,11.8772816226937,25.5978792262698,0.0344558617100306,0.00951908343567941,5,10.4333333333333,29.9
5.2,11.8772941738989,25.599183602182,0.0437845641246117,0.0093287024145811,5,10.4,29.9
5.23333333333333,11.8773105205265,25.6008816287271,0.0580709446113219,0.0142863804867102,5,10.3666666666667,29.9
5.26666666666667,11.8773328039465,25.6031953106515,0.0807100065744747,0.0226390619631528,4,10.3333333333333,29.9
5.3,11.8773636949395,25.606401197043,0.111580704607404,0.0308706980329298,4,10.3,29.9
5.33333333333333,11.8774074925823,25.6109442187946,0.160902863476056,0.0493221588686516,4,10.2666666666667,29.9
5.36666666666667,11.8774670578149,25.6171177167868,0.209374289362386,0.0484714258863295,4,10.2333333333333,29.9
5.4,11.877542155039,25.6248898244969,0.256803794067334,0.0474295047049486,4,10.2,29.9
5.43333333333333,11.877632546876,25.6342247409114,0.30315518537838,0.0463513913110459,4,10.1666666666667,29.9
5.46666666666667,11.8777380404627,25.6450870866611,0.348461898285846,0.0453067129074661,4,10.1333333333333,29.9
5.5,11.8778584959167,25.6574425389393,0.392752798371902,0.044290900086056,4,10.1,29.9
5.53333333333333,11.8779938249009,25.6712576745432,0.436052659462974,0.0432998610910721,4,10.0666666666667,29.9
5.56666666666667,11.8781439870333,25.6864998453087,0.47838174531744,0.0423290858544659,4,10.0333333333333,29.9
5.6,11.8783089807679,25.7031367425222,0.51973701164438,0.0413552663269397,4,10,29.9
5.63333333333333,11.878488829631,25.7211357385288,0.560108789040568,0.0403717773961885,4,9.96666666666667,29.9
5.66666666666667,11.8786835739069,25.7404640362308,0.599496810545877,0.0393880215053091,4,9.93333333333333,29.9
5.7,11.8788932615579,25.7610889423079,0.637907819087226,0.0384110085413486,4,9.9,29.9
5.73333333333333,11.879117936973,25.7829780637685,0.675353474166368,0.0374456550791421,4,9.86666666666667,29.9
5.76666666666667,11.8793576290654,25.8060995182677,0.711857534348499,0.0365040601821306,4,9.83333333333334,29.9
5.8,11.8796123460003,25.8304228348379,0.747480188377127,0.0356226540286282,4,9.8,29.9
5.83333333333333,11.8798820976684,25.8559196307451,0.782280567658111,0.0348003792809837,4,9.76666666666667,29.9
5.86666666666667,11.8801669701538,25.8825632954746,0.81630626660468,0.034025698946569,4,9.73333333333333,29.9
5.9,11.8804670622728,25.9103286615309,0.849596302938693,0.033290036334013,4,9.7,29.9
5.93333333333333,11.8807825512752,25.9391917578066,0.882183310780358,0.0325870078416651,4,9.66666666666667,29.9
5.96666666666667,11.8811136226448,25.9691309426132,0.914238777143739,0.0320554663633817,4,9.63333333333333,29.9
6,11.8814606507464,26.0001382752812,0.94642492737027,0.0321861502265308,4,9.6,29.9
6.03333333333333,11.8818242123925,26.0322344774042,0.979775658952601,0.0333507315823305,4,9.56666666666667,29.9
6.06666666666667,11.8822051429166,26.0654795887109,1.01560662409578,0.0358309651431794,4,9.53333333333333,29.9
6.1,11.8826046168876,26.0999809484928,1.05539925632631,0.03979263223053,4,9.5,29.9
6.13333333333333,11.8830241607157,26.1358930343084,1.10043973354404,0.0450404772177331,4,9.46666666666667,29.9
6.16666666666667,11.8834655761316,26.1734071566986,1.15165956036697,0.0512198268229298,4,9.43333333333333,29.9
6.2,11.8839308042134,26.2127411051983,1.20972873811061,0.0580691777436324,4,9.4,29.9
6.23333333333333,11.8844216818316,26.2541309824389,1.27507078109927,0.065342042988668,4,9.36666666666667,29.9
6.26666666666667,11.8849400213358,26.2978220116651,1.34780252774122,0.0727317466419453,4,9.33333333333333,29.9
6.3,11.8854873894265,26.3440590925584,1.42781414712738,0.0800116193861644,4,9.3,29.9
6.33333333333333,11.8860653914795,26.3930808940495,1.51483806760217,0.0870239204747911,4,9.26666666666667,29.9
