Time,x_ego,y_ego,velocity,acceleration,action,x_ped,y_ped
0,11.8,8.9,5,0,1,15.5,29.9
0.0333333333333333,11.800002440957,9.06660768883987,4.99642261869917,-0.00357738130082641,1,15.4972222222222,29.9
0.0666666666666667,11.8000181003957,9.23309265302348,4.9926476197977,-0.00377499890147615,1,15.4888888888889,29.9
0.1,11.8000562905291,9.39944929606501,4.9887314942227,-0.00391612557499599,1,15.475,29.9
0.133333333333333,11.8001223766044,9.56567363434499,4.98471621105835,-0.00401528316434963,1,15.4555555555556,29.9
0.166666666666667,11.8002184592719,9.73176296249913,4.98063719056622,-0.00407902049212883,1,15.4305555555556,29.9
0.2,11.8003442121405,9.89771566161846,4.97652414638536,-0.00411304418086544,1,15.4,29.9
0.233333333333333,11.8004976994018,10.0635310124719,4.97240128800932,-0.0041228583760331,1,15.3666666666667,29.9
0.266666666666667,11.80067606886,10.2292090148167,4.96828743380054,-0.00411385420878219,1,15.3333333333333,29.9
0.3,11.8008760800976,10.3947502121678,4.96419642654659,-0.00409100725395195,1,15.3,29.9
0.333333333333333,11.8010944746936,10.5601555422156,4.96013816799651,-0.00405825855008146,1,15.2666666666667,29.9
0.366666666666667,11.8013282211352,10.7254262182028,4.95611931227845,-0.00401885571805671,1,15.2333333333333,29.9
0.4,11.8015746731556,10.8905636285619,4.95214381908629,-0.00397549319215784,1,15.2,29.9
0.433333333333333,11.8018316726138,11.0555692586048,4.94821365708341,-0.00393016200288798,1,15.1666666666667,29.9
0.466666666666667,11.8020976141918,11.2204446336094,4.94432936455257,-0.003884292530838,1,15.1333333333333,29.9
0.5,11.8023714759581,11.3851912778526,4.94049043633467,-0.00383892821789811,1,15.1,29.9
0.533333333333333,11.8026528118128,11.5498106844763,4.93669560848379,-0.00379482785088481,1,15.0666666666667,29.9
0.566666666666667,11.8029417007071,11.7143042946615,4.93294311730903,-0.00375249117475907,1,15.0333333333333,29.9
0.6,11.8032386523357,11.87867348427,4.92923087281335,-0.00371224449567897,1,15,29.9
0.633333333333333,11.8035444770383,12.0429195539413,4.92555649153619,-0.00367438127715936,1,14.9666666666667,29.9
0.666666666666667,11.8038601355723,12.2070437205895,4.92191738598229,-0.00363910555389957,1,14.9333333333333,29.9
0.7,11.8041865894,12.3710471139665,4.91831094858337,-0.00360643739891398,1,14.9,29.9
0.733333333333333,11.8045246725244,12.5349307768654,4.91473454272136,-0.00357640586201136,1,14.8666666666667,29.9
0.766666666666667,11.8048750016187,12.6986956629856,4.91118544734669,-0.00354909537467574,1,14.8333333333333,29.9
0.8,11.8052379334569,12.8623426350867,4.90766090820978,-0.00352453913690276,1,14.8,29.9
0.833333333333333,11.8056135724106,13.025874282224,4.90438224649392,-0.00327866171586599,1,14.7666666666667,29.9
0.866666666666667,11.8060018497991,13.1893164690744,4.90252593574898,-0.00185631074494008,1,14.7333333333333,29.9
0.9,11.8064026311643,13.3527378462714,4.90330081571872,0.000774879969744013,1,14.7,29.9
0.933333333333333,11.8068157859872,13.5162389848589,4.90735080165293,0.00404998593420558,1,14.6666666666667,29.9
0.966666666666667,11.8072412204842,13.6799261832785,4.91426945009214,0.00691864843921497,1,14.6333333333333,29.9
1,11.8076788457024,13.8438653179233,4.92202169463914,0.00775224454699952,1,14.6,29.9
1.03333333333333,11.8081285147285,14.0080402881907,4.92807040747782,0.00604871283868036,1,14.5666666666667,29.9
1.06666666666667,11.8085900446755,14.1723724925665,4.93151729410912,0.00344688663129755,1,14.5333333333333,29.9
1.1,11.809063927124,14.3367850425971,4.9330008759188,0.00148358180968344,1,14.5,29.9
1.13333333333333,11.8095528163923,14.5012221556094,4.9330706772748,6.9801355991217e-05,1,14.4666666666667,29.9
1.16666666666667,11.810059043335,14.665643610726,4.9321195647212,-0.00095111255359992,1,14.4333333333333,29.9
1.2,11.8105845675704,14.8300203098077,4.93042824084788,-0.00169132387331405,1,14.4,29.9
1.23333333333333,11.8111326013371,14.9943310923469,4.92819697597205,-0.00223126487583158,1,14.3666666666667,29.9
1.26666666666667,11.8117059417377,15.1585604586617,4.92556836565719,-0.00262861031485873,1,14.3333333333333,29.9
1.3,11.8123079542534,15.3226969310514,4.92264359136045,-0.00292477429673799,1,14.3,29.9
1.33333333333333,11.8129405987393,15.4867318836209,4.91949401847193,-0.00314957288852646,1,14.2666666666667,29.9
1.36666666666667,11.8136041862494,15.6506586980144,4.91616957261138,-0.00332444586054947,1,14.2333333333333,29.9
1.4,11.81429766855,15.8144140211761,4.9092168265403,-0.00695274607107699,1,14.2,29.9
1.43333333333333,11.8150188735845,15.9778202870126,4.89523675236178,-0.0139800741785212,1,14.1666666666667,29.9
1.46666666666667,11.8157649030036,16.1406144677287,4.87250091400768,-0.0227358383540981,3,14.1333333333333,29.9
1.5,11.8165325421933,16.3025048864325,4.84101897527629,-0.0314819387313916,3,14.1,29.9
1.53333333333333,11.8173190302174,16.4633443488195,4.80945025687362,-0.0315687184026645,3,14.0666666666667,29.9
1.56666666666667,11.8181220236736,16.6230725849207,4.77435220654223,-0.035098050331392,3,14.0333333333333,29.9
1.6,11.8189393044696,16.7816005278259,4.73744261779346,-0.0369095887487711,3,14,29.9
1.63333333333333,11.8197691586383,16.9388972638781,4.70048833723183,-0.0369542805616359,3,13.9666666666667,29.9
1.66666666666667,11.8206102028798,17.0949328958411,4.66178376564125,-0.0387045715905776,3,13.9333333333333,29.9
1.7,11.8214613965282,17.2496779988183,4.62306309389524,-0.0387206717460087,3,13.9,29.9
1.73333333333333,11.8223221419339,17.4031321897565,4.58433488030698,-0.0387282135882625,3,13.8666666666667,29.9
1.76666666666667,11.8231921298934,17.5552953274995,4.54560525063231,-0.0387296296746653,3,13.8333333333333,29.9
1.8,11.8240712760221,17.7061674438273,4.50687859552395,-0.0387266551083592,3,13.8,29.9
1.83333333333333,11.824959641107,17.8557486941988,4.46815806896108,-0.0387205265628729,3,13.7666666666667,29.9
1.86666666666667,11.8258573454377,18.0040393226069,4.42944594191409,-0.038712127046991,3,13.7333333333333,29.9
1.9,11.8267642064445,18.1509818689072,4.38727782350645,-0.0421681184076403,3,13.7,29.9
1.93333333333333,11.8276805164577,18.2966344637271,4.35205349103483,-0.0352243324716195,3,13.6666666666667,29.9
1.96666666666667,11.8286068830782,18.4411417310764,4.31856302471069,-0.0334904663241362,3,13.6333333333333,29.9
2,11.8295432269197,18.5845327627049,4.28508438183862,-0.033478642872077,3,13.6,29.9
2.03333333333333,11.8304893639795,18.726836654098,4.25333979631377,-0.0317445855248479,3,13.5666666666667,29.9
2.06666666666667,11.831445028449,18.8680824993,4.22160696343386,-0.0317328328799045,3,13.5333333333333,29.9
2.1,11.8324099157456,19.0082997525816,4.19162971851944,-0.0299772449144244,3,13.5,29.9
2.13333333333333,11.8333837144753,19.1475178616867,4.16166381050271,-0.0299659080167256,3,13.4666666666667,29.9
2.16666666666667,11.834365975174,19.2857372021291,4.13170905438424,-0.029954756118471,3,13.4333333333333,29.9
2.2,11.835356287571,19.4229581450957,4.10176530349651,-0.0299437508877318,3,13.4,29.9
2.23333333333333,11.8363542868014,19.559181058426,4.07183244691625,-0.0299328565802632,3,13.3666666666667,29.9
2.26666666666667,11.8373594719162,19.6943772420395,4.04016648632881,-0.0316659605874392,3,13.3333333333333,29.9
2.3,11.8383713638474,19.828517998692,4.00851153979358,-0.0316549465352303,3,13.3,29.9
2.33333333333333,11.8393894861138,19.9615749983019,3.97514556930543,-0.0333659704881453,3,13.2666666666667,29.9
2.36666666666667,11.8404133511508,20.0935199173562,3.94179101079016,-0.0333545585152764,3,13.2333333333333,29.9
2.4,11.8414424455659,20.2243244388556,3.90672590740311,-0.0350651033870486,3,13.2,29.9
2.43333333333333,11.8424762295374,20.3539602542363,3.8716727434899,-0.0350531639132119,3,13.1666666666667,29.9
2.46666666666667,11.8435141315724,20.4823986994194,3.83488778320763,-0.0367849602822687,3,13.1333333333333,29.9
2.5,11.8445553639733,20.6095824177434,3.79639318871255,-0.0384945944950728,3,13.1,29.9
2.53333333333333,11.8455993157795,20.7354831308033,3.75791149755782,-0.0384816911547365,3,13.0666666666667,29.9
2.56666666666667,11.8466455644729,20.8601012722909,3.71944291750047,-0.0384685800573443,3,13.0333333333333,29.9
2.6,11.8476930743427,20.9833508132808,3.67579940429223,-0.043643513208246,3,13,29.9
2.63333333333333,11.8487405856726,21.1051166777436,3.63042599583282,-0.045373408459406,3,12.9666666666667,29.9
2.66666666666667,11.8497874318927,21.2253702815999,3.58506720679677,-0.0453587890360554,3,12.9333333333333,29.9
2.7,11.8508333567525,21.3441411870067,3.54146730253895,-0.0435999042578197,3,12.9,29.9
2.73333333333333,11.8518778839077,21.4614298968137,3.49613842998647,-0.0453288725524752,3,12.8666666666667,29.9
2.76666666666667,11.8529203185189,21.5772078551724,3.4508248077982,-0.0453136221882735,3,12.8333333333333,29.9
2.8,11.8539604065943,21.691504643393,3.40727050571773,-0.0435543020804676,3,12.8,29.9
2.83333333333333,11.854997680727,21.8043207771328,3.36198754226004,-0.045282963457693,3,12.7666666666667,29.9
2.86666666666667,11.8560314626697,21.9156277086735,3.31672004923058,-0.0452674930294599,3,12.7333333333333,29.9
2.9,11.8570610853091,22.0253972571643,3.26974598273065,-0.0469740664999216,3,12.7,29.9
2.93333333333333,11.8580856608201,22.1335725458648,3.22106562412089,-0.0486803586097637,3,12.6666666666667,29.9
2.96666666666667,11.8591040621365,22.2400676431493,3.16893539918916,-0.0521302249317359,3,12.6333333333333,29.9
3,11.8601149058545,22.3447675692635,3.11335593467525,-0.0555794645139049,3,12.6,29.9
3.03333333333333,11.8611167733107,22.4475577314393,3.05434978747775,-0.0590061471975023,3,12.5666666666667,29.9
3.06666666666667,11.8621081947605,22.5483235646556,2.9918960060551,-0.0624537814226436,3,12.5333333333333,29.9
3.1,11.8630881277213,22.6470079378055,2.92946157574486,-0.0624344303102395,3,12.5,29.9
3.13333333333333,11.864056469721,22.7436692771617,2.87051310397638,-0.0589484717684834,3,12.4666666666667,29.9
3.16666666666667,11.8650131091483,22.8383660161456,2.81158446311524,-0.0589286408611396,3,12.4333333333333,29.9
3.2,11.8659571963075,22.9310697570869,2.75093176330998,-0.0606526998052601,3,12.4,29.9
3.23333333333333,11.866887643303,23.0217234056449,2.68857703500774,-0.0623547283022452,3,12.3666666666667,29.9
3.26666666666667,11.867803632807,23.110298941345,2.62624272554156,-0.0623343094661775,3,12.3333333333333,29.9
3.3,11.8687046254713,23.1967970524767,2.56392899014954,-0.0623137353920167,3,12.3,29.9
3.33333333333333,11.8695895933009,23.2811606647181,2.4981698421831,-0.065759147966443,3,12.2666666666667,29.9
3.36666666666667,11.8704580564683,23.3633904801645,2.43589789747464,-0.0622719447084612,3,12.2333333333333,29.9
3.4,11.8713100879737,23.4435449701147,2.37364688359666,-0.0622510138779773,3,12.2,29.9
3.43333333333333,11.8721452732582,23.5216248355131,2.3114167303399,-0.0622301532567642,3,12.1666666666667,29.9
3.46666666666667,11.8729634968106,23.597659476381,2.25092938604367,-0.060487344296225,3,12.1333333333333,29.9
3.5,11.8737649585103,23.6717084181952,2.19232049343735,-0.0586088926063173,3,12.1,29.9
3.53333333333333,11.8745497182694,23.743812161825,2.13431137753485,-0.0580091159025069,3,12.0666666666667,29.9
3.56666666666667,11.8753180489676,23.8140299903956,2.07925876871372,-0.0550526088211294,3,12.0333333333333,29.9
3.6,11.8760706948354,23.8824671244068,2.02748171490533,-0.0517770538083862,3,12,29.9
3.63333333333333,11.8768084929978,23.9492339803219,1.97903959766306,-0.0484421172422764,3,11.9666666666667,29.9
3.66666666666667,11.8775323256044,24.0144408744529,1.9338601171814,-0.045179480481659,3,11.9333333333333,29.9
3.7,11.8782428052208,24.0781655414192,1.8900823955421,-0.0437777216393009,3,11.9,29.9
3.73333333333333,11.8789405433631,24.1404815624284,1.84931950804697,-0.0407628874951269,3,11.8666666666667,29.9
3.76666666666667,11.8796261464133,24.2014588128334,1.80973840002248,-0.039581108024485,3,11.8333333333333,29.9
3.8,11.8802999319427,24.2611351824297,1.7712451328967,-0.0384932671257805,3,11.8,29.9
3.83333333333333,11.8809621954579,24.3195450364415,1.73372882394177,-0.0375163089549315,3,11.7666666666667,29.9
3.86666666666667,11.8816129185278,24.3766907996442,1.69538686777592,-0.0383419561658525,3,11.7333333333333,29.9
3.9,11.8822520531372,24.4325727775394,1.65789293209661,-0.0374939356793069,3,11.7,29.9
3.93333333333333,11.8828792285556,24.4871609664703,1.61775455029315,-0.0401383818034609,3,11.6666666666667,29.9
3.96666666666667,11.8834934642206,24.5403675535983,1.57499606990036,-0.0427584803927876,3,11.6333333333333,29.9
4,11.8840940301744,24.5921338160102,1.53133083284966,-0.043665237050704,3,11.6,29.9
4.03333333333333,11.8846798557709,24.6423720658311,1.48331147988014,-0.0480193529695243,3,11.5666666666667,29.9
4.06666666666667,11.8852492377678,24.6909374526919,1.43095960745408,-0.0523518724260557,3,11.5333333333333,29.9
4.1,11.885800720428,24.7377150085219,1.37604492470716,-0.054914682746924,3,11.5,29.9
4.13333333333333,11.8863331115378,24.7826206660232,1.31864901684896,-0.0573959078581951,3,11.4666666666667,29.9
4.16666666666667,11.8868454899277,24.8256007697048,1.26050878369576,-0.0581402331531964,3,11.4333333333333,29.9
4.2,11.8873369135883,24.8666025245057,1.19994722269236,-0.0605615610034016,3,11.4,29.9
4.23333333333333,11.8878067370368,24.9056031745839,1.14044281884112,-0.0595044038512413,3,11.3666666666667,29.9
4.26666666666667,11.8882549237192,24.942638538247,1.08203395037701,-0.0584088684641093,3,11.3333333333333,29.9
4.3,11.8886808693291,24.9776885803632,1.02133533888628,-0.0606986114907306,3,11.3,29.9
4.33333333333333,11.8890840259029,25.0107363748681,0.961907885919475,-0.0594274529668067,3,11.2666666666667,29.9
4.36666666666667,11.889464205118,25.0417964853579,0.902078646958951,-0.0598292389605236,3,11.2333333333333,29.9
4.4,11.8898215826711,25.0709144064941,0.845365018817412,-0.056713628141539,3,11.2,29.9
4.43333333333333,11.8901563678493,25.0981348706644,0.788209508097475,-0.0571555107199372,3,11.1666666666667,29.9
4.46666666666667,11.8904687888739,25.1235000877112,0.734030210398922,-0.0541792976985526,3,11.1333333333333,29.9
4.5,11.8907590947633,25.1470501560964,0.679281990725609,-0.0547482196733133,3,11.1,29.9
4.53333333333333,11.8910272513793,25.1687945947286,0.625682330748704,-0.0535996599769047,3,11.0666666666667,29.9
4.56666666666667,11.8912738828179,25.1888011604735,0.575004044127623,-0.0506782866210813,3,11.0333333333333,29.9
4.6,11.8914990405834,25.2070807973876,0.522060181478493,-0.0529438626491304,3,11,29.9
4.63333333333333,11.891703120509,25.2236738470323,0.47380127992373,-0.0482589015547626,3,10.9666666666667,29.9
4.66666666666667,11.8918871636699,25.2386785909887,0.426752027918714,-0.0470492520050163,3,10.9333333333333,29.9
4.7,11.8920516058409,25.2521347304052,0.380871560922724,-0.0458804669959899,3,10.9,29.9
4.73333333333333,11.8921971899082,25.2641089174965,0.337823541985092,-0.0430480189376321,3,10.8666666666667,29.9
4.76666666666667,11.8923249643487,25.2746948985477,0.297569726296185,-0.0402538156889067,3,10.8333333333333,29.9
4.8,11.8924356589144,25.2839557176342,0.258306810642551,-0.0392629156536339,3,10.8,29.9
4.83333333333333,11.8925296784225,25.2919235048882,0.219983130945653,-0.0383236796968978,3,10.7666666666667,29.9
4.86666666666667,11.8926077269611,25.2986578068224,0.184307812476714,-0.0356753184689396,3,10.7333333333333,29.9
4.9,11.8926708282097,25.3042477089376,0.151329924688923,-0.0329778877877909,3,10.7,29.9
4.93333333333333,11.892719710162,25.3087549143383,0.11935234799515,-0.0319775766937729,3,10.6666666666667,29.9
4.96666666666667,11.8927547936269,25.3122128973357,0.0883821223986988,-0.0309702255964511,3,10.6333333333333,29.9
5,11.8927764940551,25.3146551482316,0.058417285682717,-0.0299648367159819,3,10.6,29.9
5.03333333333333,11.8927852158701,25.3161148653281,0.0294585529509634,-0.0289587327317536,3,10.5666666666667,29.9
5.06666666666667,11.8927813479335,25.3166247369053,0.00226474126494264,-0.0271938116860207,3,10.5333333333333,29.9
5.1,11.892769242219,25.3165867829244,0.00189346654489235,-0.000371274720050292,5,10.5,29.9
5.13333333333333,11.8927548116175,25.3165488538579,0.00124871776595662,-0.000644748778935731,5,10.4666666666667,29.9
5.16666666666667,11.8927548116175,25.3165488538579,0.00115479138034947,-9.39263856071517e-05,5,10.4333333333333,29.9
5.2,11.8927548116175,25.3165488538579,0.00116888934714096,1.40979667914922e-05,5,10.4,29.9
5.23333333333333,11.8927548116175,25.3165488538579,0.00126743792463358,9.8548577492617e-05,5,10.3666666666667,29.9
5.26666666666667,11.8927548116175,25.3165488538579,0.00141793647683572,0.000150498552202142,5,10.3333333333333,29.9
5.3,11.8927548116175,25.3165488538579,0.00158423911621979,0.000166302639384074,5,10.3,29.9
5.33333333333333,11.8927548116175,25.3165488538579,0.00173122316662251,0.000146984050402711,5,10.2666666666667,29.9
5.36666666666667,11.8927548116175,25.3165488538579,0.00182855507495771,9.73319083352046e-05,5,10.2333333333333,29.9
5.4,11.8927548116175,25.3165488538579,0.00185338722926874,2.48321543110321e-05,5,10.2,29.9
5.43333333333333,11.8927548116175,25.3165488538579,0.00179193343005915,-6.14537992095871e-05,5,10.1666666666667,29.9
5.46666666666667,11.8927548116175,25.3165488538579,0.00163996952353285,-0.000151963906526308,5,10.1333333333333,29.9
5.5,11.8927548116175,25.3165488538579,0.00140238426709876,-0.00023758525643409,5,10.1,29.9
5.53333333333333,11.8927548116175,25.3165488538579,0.00109196143875773,-0.000310422828341023,5,10.0666666666667,29.9
5.56666666666667,11.8927548116175,25.3165488538579,0.000727607143947393,-0.000364354294810339,5,10.0333333333333,29.9
5.6,11.8927548116175,25.3165488538579,0.000332247562118483,-0.00039535958182891,5,10,29.9
5.63333333333333,11.8927548116175,25.3165488538579,6.93853019588796e-05,-0.000262862260159604,5,9.96666666666667,29.9
5.66666666666667,11.8927548116175,25.3165488538579,0.000452885324773697,0.000383500022814818,5,9.93333333333333,29.9
5.7,11.8927548116175,25.3165488538579,0.000796061133985087,0.000343175809211389,5,9.9,29.9
5.73333333333333,11.8927548116175,25.3165488538579,0.000981859028210962,0.000185797894225876,5,9.86666666666667,29.9
5.76666666666667,11.8927578014195,25.3168269851401,0.012475479425727,0.011493620397516,5,9.83333333333334,29.9
5.8,11.8927655693108,25.3175496141982,0.0309009150645444,0.0184254356388174,4,9.8,29.9
5.83333333333333,11.8927808398867,25.3189699824278,0.0542850643604381,0.0233841492958937,4,9.76666666666667,29.9
5.86666666666667,11.8928059848213,25.3213081058833,0.0859325944894345,0.0316475301289963,4,9.73333333333333,29.9
5.9,11.8928430184253,25.3247499740426,0.120484492901805,0.0345518984123701,4,9.7,29.9
5.93333333333333,11.8928945266613,25.3295334287216,0.166404324933119,0.0459198320313143,4,9.66666666666667,29.9
5.96666666666667,11.8929630569702,25.3358905524016,0.214883201724795,0.048478876791676,4,9.63333333333333,29.9
6,11.8930489571295,25.3438455746491,0.262274419451272,0.0473912177264766,4,9.6,29.9
6.03333333333333,11.8931519610921,25.3533616412906,0.308565995636045,0.0462915761847734,4,9.56666666666667,29.9
6.06666666666667,11.8932718602676,25.364402801158,0.353797953429902,0.0452319577938567,4,9.53333333333333,29.9
6.1,11.8934085094697,25.3769343331875,0.398003190989809,0.0442052375599071,4,9.5,29.9
6.13333333333333,11.893561824391,25.3909225372859,0.441209602513913,0.0432064115241045,4,9.46666666666667,29.9
6.16666666666667,11.8937317766337,25.4063345672769,0.483438764791954,0.0422291622780405,4,9.43333333333333,29.9
6.2,11.8939183818501,25.4231378989053,0.524687055573544,0.0412482907815898,4,9.4,29.9
6.23333333333333,11.8941216841274,25.4412997183387,0.564947499366307,0.0402604437927636,4,9.36666666666667,29.9
6.26666666666667,11.8943417463865,25.4607871178527,0.604222143543755,0.0392746441774479,4,9.33333333333333,29.9
6.3,11.8945786391997,25.4815673502174,0.642519375213022,0.0382972316692668,4,9.3,29.9
6.33333333333333,11.8948324272346,25.5036080095762,0.679851949082137,0.0373325738691154,4,9.26666666666667,29.9
6.36666666666667,11.895103155564,25.5268772749492,0.716248075474871,0.0363961263927342,4,9.23333333333333,29.9
