Time,x_ego,y_ego,velocity,acceleration,action,x_ped,y_ped
0,11.8,8.9,5,0,1,15.5,29.9
0.0333333333333333,11.8000042639419,9.06660768883574,4.99642262753217,-0.00357737246783252,1,15.5,29.9
0.0666666666666667,11.8000316183523,9.23309265283679,4.99264772639562,-0.00377490113654755,1,15.5,29.9
0.1,11.8000983301086,9.3994492943029,4.98873189015102,-0.00391583624460079,1,15.5,29.9
0.133333333333333,11.8002137714057,9.56567361239838,4.98471560171126,-0.00401628843975921,1,15.5,29.9
0.166666666666667,11.8003816117201,9.73176274936765,4.9806277503672,-0.00408785134405676,1,15.5,29.9
0.2,11.8006012807972,9.89771466676994,4.97648894816197,-0.00413880220523488,1,15.5,29.9
0.233333333333333,11.8008700119449,10.0635279144559,4.9723140005945,-0.00417494756746528,1,15.5,29.9
0.266666666666667,11.8011855394431,10.2292014645034,4.9681135349208,-0.00420046567369958,1,15.5,29.9
0.3,11.8015445513901,10.3947345933128,4.96389512111815,-0.00421841380265686,1,15.5,29.9
0.333333333333333,11.8019427089925,10.560126797222,4.9596642016538,-0.00423091946434351,1,15.5,29.9
0.366666666666667,11.8023752445492,10.7253777315067,4.95542470290597,-0.00423949874783691,1,15.5,29.9
0.4,11.8028374480872,10.8904871660673,4.95117946638373,-0.00424523652223741,1,15.5,29.9
0.433333333333333,11.8033250529008,11.0554549530545,4.94693055352889,-0.00424891285484197,1,15.5,29.9
0.466666666666667,11.8038345236578,11.2202810031535,4.94267946191661,-0.00425109161228043,1,15.5,29.9
0.5,11.8043638244845,11.3849652672299,4.93842735481792,-0.00425210709868828,1,15.5,29.9
0.533333333333333,11.8049145161523,11.5495077195087,4.9341751307027,-0.00425222411522075,1,15.5,29.9
0.566666666666667,11.8054908785776,11.7139083484097,4.92992333960678,-0.00425179109591678,1,15.5,29.9
0.6,11.8060973519566,11.8781671542581,4.9256723756845,-0.00425096392228497,1,15.5,29.9
0.633333333333333,11.8067393452291,12.0422841430139,4.92142250485865,-0.00424987082584138,1,15.5,29.9
0.666666666666667,11.8074209079309,12.2062593282357,4.9171738284011,-0.00424867645755178,1,15.5,29.9
0.7,11.8081442523542,12.3700927312089,4.91292640365994,-0.00424742474116702,1,15.5,29.9
0.733333333333333,11.808910062855,12.5337843800866,4.90868026285292,-0.00424614080701602,1,15.5,29.9
0.766666666666667,11.8097178338222,12.6973343092046,4.90443542756932,-0.00424483528359865,1,15.5,29.9
0.8,11.8105661987758,12.8607425584174,4.90019191799982,-0.00424350956949837,1,15.5,29.9
0.833333333333333,11.8114532342855,13.0240091723332,4.89594975762128,-0.00424216037854119,1,15.5,29.9
0.866666666666667,11.8123767338209,13.1871341993869,4.89170897475146,-0.0042407828698261,1,15.5,29.9
0.9,11.8133344496247,13.3501176907573,4.88746960223471,-0.00423937251675,1,15.5,29.9
0.933333333333333,11.8143242985853,13.5129596991931,4.88323167605606,-0.00423792617864827,1,15.5,29.9
0.966666666666667,11.8153445247417,13.6756602778542,4.87899523331615,-0.00423644273990842,1,15.5,29.9
1,11.8163938095921,13.8382194792882,4.87476030986597,-0.0042349234501815,1,15.5,29.9
1.03333333333333,11.8174713233949,14.0006373546516,4.87052693792112,-0.0042333719448493,1,15.5,29.9
1.06666666666667,11.8185767160994,14.1629139532506,4.86629514400812,-0.004231793912993,1,15.5,29.9
1.1,11.8197100540016,14.3250493224257,4.86206494754723,-0.00423019646089262,1,15.5,29.9
1.13333333333333,11.8208717156359,14.487043507754,4.8578363602463,-0.00422858730093179,1,15.5,29.9
1.16666666666667,11.8220622657388,14.6488965534938,4.85360938632648,-0.00422697391981774,1,15.5,29.9
1.2,11.8232823279999,14.8106085031655,4.84938402347987,-0.00422536284661224,1,15.5,29.9
1.23333333333333,11.8245324753358,14.9721794001536,4.84516026438889,-0.00422375909098172,1,15.5,29.9
1.26666666666667,11.8258131511909,15.1336092882244,4.84093809859746,-0.00422216579143253,1,15.5,29.9
1.3,11.8271246282159,15.2948982118842,4.8367175144918,-0.00422058410565729,1,15.5,29.9
1.33333333333333,11.8284670032612,15.456046216544,4.8324985011257,-0.00421901336609398,1,15.5,29.9
1.36666666666667,11.8298402214978,15.617053348499,4.8282810496355,-0.00421745149020225,1,15.5,29.9
1.4,11.8312441187144,15.7779196547641,4.82406515405768,-0.00421589557781932,1,15.5,29.9
1.43333333333333,11.8326784698511,15.9386451828286,4.81985081148422,-0.00421434257345865,1,15.5,29.9
1.46666666666667,11.8341430333614,16.099229980396,4.81563802163368,-0.00421278985054929,1,15.5,29.9
1.5,11.8356375842827,16.2596740951636,4.81142678603263,-0.00421123560104508,1,15.5,29.9
1.53333333333333,11.8371613369444,16.4199775792245,4.80721700731204,-0.00420977872059414,1,15.4972222222222,29.9
1.56666666666667,11.8387115013283,16.5801405008966,4.80300864160999,-0.00420836570204486,1,15.4888888888889,29.9
1.6,11.8402856634996,16.7401629275248,4.79880176564917,-0.00420687596082114,1,15.475,29.9
1.63333333333333,11.8418823947215,16.9000449200699,4.79459643999706,-0.00420532565210596,1,15.4555555555556,29.9
1.66666666666667,11.8435010860627,17.0597865335106,4.79039270512026,-0.00420373487680425,1,15.4305555555556,29.9
1.7,11.8451417418675,17.2193878178145,4.78619058292711,-0.00420212219314831,1,15.4,29.9
1.73333333333333,11.8468041836935,17.3788488243149,4.78198999144002,-0.00420059148708685,1,15.3666666666667,29.9
1.76666666666667,11.8484864349496,17.5381696202136,4.77779088976926,-0.00419910167076054,1,15.3333333333333,29.9
1.8,11.850186399361,17.6973502748559,4.77359325762263,-0.00419763214663327,1,15.3,29.9
1.83333333333333,11.8519010179122,17.8563908675398,4.76939710585515,-0.00419615176747978,1,15.2666666666667,29.9
1.86666666666667,11.8536283051749,18.0152914691062,4.76520252216996,-0.00419458368519532,1,15.2333333333333,29.9
1.9,11.855367699123,18.1740521377012,4.76100956064568,-0.00419296152427506,1,15.2,29.9
1.93333333333333,11.8571196919638,18.332672921273,4.75681824631874,-0.00419131432694186,1,15.1666666666667,29.9
1.96666666666667,11.8588854529559,18.4911538605593,4.75262858346916,-0.00418966284957722,1,15.1333333333333,29.9
2,11.8606664951802,18.6494949920007,4.74844056369002,-0.00418801977914285,1,15.1,29.9
2.03333333333333,11.862464413856,18.8076963502161,4.74425417204306,-0.00418639164695556,1,15.0666666666667,29.9
2.06666666666667,11.8642807030185,18.9657579698771,4.74006939112458,-0.00418478091848229,1,15.0333333333333,29.9
2.1,11.8661166429102,19.1236798869847,4.73588620351046,-0.00418318761411829,1,15,29.9
2.13333333333333,11.8679732429859,19.2814621396418,4.73170459311772,-0.00418161039273812,1,14.9666666666667,29.9
2.16666666666667,11.8698512240229,19.4391047684516,4.72752454587689,-0.00418004724083687,1,14.9333333333333,29.9
2.2,11.8717510254627,19.596607816655,4.72334604997454,-0.00417849590235075,1,14.9,29.9
2.23333333333333,11.8736728285185,19.7539713300849,4.71916909585219,-0.00417695412234576,1,14.8666666666667,29.9
2.26666666666667,11.8756165897915,19.9111953569771,4.71499367610573,-0.00417541974646252,1,14.8333333333333,29.9
2.3,11.8775820829203,20.0682799476544,4.71081978538171,-0.00417389072401519,1,14.8,29.9
2.33333333333333,11.8795683625048,20.2252251606802,4.70664734815662,-0.00417243722509664,1,14.7666666666667,29.9
2.36666666666667,11.8815723917775,20.3820310789855,4.70247632889331,-0.00417101926330954,1,14.7333333333333,29.9
2.4,11.8835914308018,20.5386977836634,4.69830678287594,-0.00416954601737007,1,14.7,29.9
2.43333333333333,11.8856231479782,20.6952253523815,4.6941386930598,-0.00416808981614114,1,14.6666666666667,29.9
2.46666666666667,11.8876641669509,20.851613876156,4.68997206914256,-0.00416662391723488,1,14.6333333333333,29.9
2.5,11.8897121174292,21.0078634354069,4.68580698291399,-0.00416508622857137,1,14.6,29.9
2.53333333333333,11.8917660387129,21.1639740943669,4.68164347955496,-0.0041635033590266,1,14.5666666666667,29.9
2.56666666666667,11.8938260716124,21.3199459039692,4.67748158087095,-0.00416189868400885,1,14.5333333333333,29.9
2.6,11.8958931285689,21.4757789053224,4.67332129206326,-0.00416028880769126,1,14.5,29.9
2.63333333333333,11.8979685869825,21.6314731331726,4.66916260841383,-0.00415868364943339,1,14.4666666666667,29.9
2.66666666666667,11.9000540307968,21.7870286189735,4.66500552024047,-0.00415708817336213,1,14.4333333333333,29.9
2.7,11.9021510492927,21.9424453933828,4.66085001591658,-0.00415550432389011,1,14.4,29.9
2.73333333333333,11.9042610914374,22.0977234881541,4.65669608343024,-0.00415393248633666,1,14.3666666666667,29.9
2.76666666666667,11.9063853642926,22.2528625741818,4.65252191218194,-0.00417417124830433,1,14.3333333333333,29.9
2.8,11.9085207346706,22.4075451712614,4.6293188491071,-0.0232030630748357,3,14.3,29.9
2.83333333333333,11.9106610890452,22.5612525963164,4.59402181713735,-0.0352970319697556,3,14.2666666666667,29.9
2.86666666666667,11.9128012988177,22.7135814318487,4.54661200009484,-0.0474098170425057,3,14.2333333333333,29.9
2.9,11.9149353779473,22.8640993095296,4.48537067996661,-0.0612413201282331,3,14.2,29.9
2.93333333333333,11.9170584032258,23.0124895158639,4.41895597989694,-0.0664147000696689,3,14.1666666666667,29.9
2.96666666666667,11.9191688917205,23.1587239053902,4.35602503741809,-0.0629309424788485,3,14.1333333333333,29.9
3,11.9212662955666,23.3028608654536,4.29311315899363,-0.0629118784244582,3,14.1,29.9
3.03333333333333,11.9233480536398,23.4448145993967,4.2250332501243,-0.06807990886933,3,14.0666666666667,29.9
3.06666666666667,11.9254096435587,23.5843551299592,4.14832072359616,-0.0767125265281416,3,14.0333333333333,29.9
3.1,11.9274469608595,23.721281240735,4.06816571803436,-0.0801550055617941,3,14,29.9
3.13333333333333,11.9294571604865,23.8554785997246,3.98459149588365,-0.0835742221507108,3,13.9666666666667,29.9
3.16666666666667,11.9314375122401,23.9868329237994,3.89757758531275,-0.0870139105709091,3,13.9333333333333,29.9
3.2,11.9333862057892,24.115287374222,3.81059127153339,-0.0869863137793594,3,13.9,29.9
3.23333333333333,11.9353011440579,24.2407564451755,3.71844512946302,-0.0921461420703698,3,13.8666666666667,29.9
3.26666666666667,11.9371790995045,24.3630682026924,3.62114042250692,-0.0973047069560953,3,13.8333333333333,29.9
3.3,11.9390168694302,24.4820507557644,3.51867857857404,-0.102461843932881,3,13.8,29.9
3.33333333333333,11.9408112308719,24.5975322600223,3.41106112897458,-0.107617449599456,3,13.7666666666667,29.9
3.36666666666667,11.9425584846914,24.7093118572583,3.29654573020368,-0.1145153987709,3,13.7333333333333,29.9
3.4,11.944256091588,24.8172752065747,3.18206630309455,-0.114479427109135,3,13.7,29.9
3.43333333333333,11.9459031020564,24.9214235356328,3.06762383405622,-0.114442469038325,3,13.6666666666667,29.9
3.46666666666667,11.9474985201213,25.0217580984795,2.95321896143244,-0.114404872623787,3,13.6333333333333,29.9
3.5,11.949041329788,25.118280165977,2.83885207234016,-0.114366889092274,3,13.6,29.9
3.53333333333333,11.9505296707239,25.210933256334,2.72105730208679,-0.11779477025337,3,13.5666666666667,29.9
3.56666666666667,11.9519604219091,25.2995744386349,2.59811300516275,-0.12294429692404,3,13.5333333333333,29.9
3.6,11.953331334269,25.3841185673165,2.47520819135457,-0.122904813808179,3,13.5,29.9
3.63333333333333,11.9546406155514,25.4645095784813,2.34889892656476,-0.126309264789819,3,13.4666666666667,29.9
3.66666666666667,11.9558860918541,25.5406623945867,2.22089103771189,-0.128007888852864,3,13.4333333333333,29.9
3.7,11.9570661457468,25.6125252214424,2.09165937785456,-0.129231659857336,3,13.4,29.9
3.73333333333333,11.9581792826586,25.6800506335346,1.96079797820247,-0.130861399652082,3,13.3666666666667,29.9
3.76666666666667,11.95922546768,25.7432838833878,1.83414278823078,-0.126655189971696,3,13.3333333333333,29.9
3.8,11.9602062092416,25.802367498797,1.71179041573186,-0.122352372498917,3,13.3,29.9
3.83333333333333,11.9611226646164,25.8574154894653,1.59196297812987,-0.119827437601987,3,13.2666666666667,29.9
3.86666666666667,11.9619756073541,25.9085112289531,1.47461774961565,-0.117345228514228,3,13.2333333333333,29.9
3.9,11.9627658654013,25.9557364870466,1.35969389185607,-0.11492385775958,3,13.2,29.9
3.93333333333333,11.9634938709811,25.9991425056217,1.24542463517975,-0.114269256676312,3,13.1666666666667,29.9
3.96666666666667,11.9641600932846,26.038778782042,1.13346915081483,-0.111955484364925,3,13.1333333333333,29.9
4,11.9647659157855,26.0747505460345,1.02553077233508,-0.107938378479755,3,13.1,29.9
4.03333333333333,11.9653127922536,26.1071642556126,0.919974468190403,-0.105556304144673,3,13.0666666666667,29.9
4.06666666666667,11.9658018253369,26.1361007152404,0.816866241578387,-0.103108226612016,3,13.0333333333333,29.9
4.1,11.966234147947,26.1616402726843,0.716108167651959,-0.100758073926428,3,13,29.9
4.13333333333333,11.9666113033304,26.1838877079818,0.619297531948938,-0.096810635703021,3,12.9666666666667,29.9
4.16666666666667,11.9669348207491,26.202945199467,0.524692327782075,-0.0946052041668636,3,12.9333333333333,29.9
4.2,11.9672062652904,26.2189157871373,0.434062116241924,-0.0906302115401512,3,12.9,29.9
4.23333333333333,11.9674272218727,26.2319026505355,0.345635249828432,-0.0884268664134921,3,12.8666666666667,29.9
4.26666666666667,11.9675996962489,26.2420350599464,0.262759658424005,-0.0828755914044262,3,12.8333333333333,29.9
4.3,11.9677265510629,26.2494965571421,0.185355561498409,-0.077404096925596,3,12.8,29.9
4.33333333333333,11.9678106344537,26.2544691776343,0.113443576096359,-0.0719119854020499,3,12.7666666666667,29.9
4.36666666666667,11.9678543795523,26.2571080367976,0.0453910353919641,-0.0680525407043952,3,12.7333333333333,29.9
4.4,11.9678625539022,26.257717995208,0.00981849355603804,-0.0355725418359261,3,12.7,29.9
4.43333333333333,11.9678485517938,26.2571573645217,0.0256994611936412,0.0158809676376031,5,12.6666666666667,29.9
4.46666666666667,11.9678262448391,26.256307480678,0.00348389519355937,-0.0222155660000818,3,12.6333333333333,29.9
4.5,11.9678262448391,26.256307480678,0.00399255914891282,0.000508663955353458,5,12.6,29.9
4.53333333333333,11.9678262448391,26.256307480678,0.00463311693925248,0.00064055779033966,5,12.5666666666667,29.9
4.56666666666667,11.9678262448391,26.256307480678,0.00532955070117836,0.000696433761925875,5,12.5333333333333,29.9
4.6,11.9678262448391,26.256307480678,0.00599374388420239,0.000664193183024031,5,12.5,29.9
4.63333333333333,11.9678262448391,26.256307480678,0.00653799040002646,0.000544246515824072,5,12.4666666666667,29.9
4.66666666666667,11.9678262448391,26.256307480678,0.00688549448477584,0.000347504084749379,5,12.4333333333333,29.9
4.7,11.9678262448391,26.256307480678,0.00697826043204334,9.27659472674978e-05,5,12.4,29.9
4.73333333333333,11.9678262448391,26.256307480678,0.00678208595642329,-0.000196174475620044,5,12.3666666666667,29.9
4.76666666666667,11.9678262448391,26.256307480678,0.00628865716204621,-0.000493428794377084,5,12.3333333333333,29.9
4.8,11.9678262448391,26.256307480678,0.00551498068117537,-0.000773676480870842,5,12.3,29.9
4.83333333333333,11.9678262448391,26.256307480678,0.00450056940576543,-0.00101441127540994,5,12.2666666666667,29.9
4.86666666666667,11.9678262448391,26.256307480678,0.00330291807219241,-0.00119765133357302,5,12.2333333333333,29.9
4.9,11.9678262448391,26.256307480678,0.00199186464443255,-0.00131105342775986,5,12.2,29.9
4.93333333333333,11.9678262448391,26.256307480678,0.000643438083176972,-0.00134842656125558,5,12.1666666666667,29.9
4.96666666666667,11.9678262448391,26.256307480678,0.000666249022216551,2.28109390395786e-05,5,12.1333333333333,29.9
5,11.9678262448391,26.256307480678,0.00186658298303066,0.00120033396081411,5,12.1,29.9
5.03333333333333,11.9678262448391,26.256307480678,0.00289713025437393,0.00103054727134327,5,12.0666666666667,29.9
5.06666666666667,11.9678262448391,26.256307480678,0.00371115810482628,0.000814027850452351,5,12.0333333333333,29.9
5.1,11.9678262448391,26.256307480678,0.0042778556003959,0.000566697495569621,5,12,29.9
5.13333333333333,11.9678262448391,26.256307480678,0.00458322977313723,0.00030537417274133,5,11.9666666666667,29.9
5.16666666666667,11.9678262448391,26.256307480678,0.00462975226422952,4.6522491092286e-05,5,11.9333333333333,29.9
5.2,11.9678262448391,26.256307480678,0.00443491328908485,-0.000194838975144664,5,11.9,29.9
5.23333333333333,11.9678262448391,26.256307480678,0.00402889929441698,-0.000406013994667871,5,11.8666666666667,29.9
5.26666666666667,11.9678262448391,26.256307480678,0.00345164701316782,-0.000577252281249161,5,11.8333333333333,29.9
5.3,11.9678262448391,26.256307480678,0.00274954041854272,-0.000702106594625107,5,11.8,29.9
5.33333333333333,11.9678262448391,26.256307480678,0.00197201046091727,-0.000777529957625443,5,11.7666666666667,29.9
5.36666666666667,11.9678262448391,26.256307480678,0.00116827368258015,-0.000803736778337119,5,11.7333333333333,29.9
5.4,11.9678262448391,26.256307480678,0.000384408812193998,-0.000783864870386155,5,11.7,29.9
5.43333333333333,11.9678262448391,26.256307480678,0.00033907544284201,-4.5333369351988e-05,5,11.6666666666667,29.9
5.46666666666667,11.9678262448391,26.256307480678,0.000969078647207901,0.00063000320436589,5,11.6333333333333,29.9
5.5,11.9678262448391,26.256307480678,0.00148110118464703,0.000512022537439133,5,11.6,29.9
5.53333333333333,11.9678262448391,26.256307480678,0.00185978741782733,0.000378686233180296,5,11.5666666666667,29.9
5.56666666666667,11.9678262448391,26.256307480678,0.00209885807518607,0.000239070657358743,5,11.5333333333333,29.9
5.6,11.9678262448391,26.256307480678,0.00220050496560468,0.000101646890418608,5,11.5,29.9
5.63333333333333,11.9678262448391,26.256307480678,0.00217434655327255,-2.61584123321273e-05,5,11.4666666666667,29.9
5.66666666666667,11.9678262448391,26.256307480678,0.00203605882552629,-0.000138287727746266,5,11.4333333333333,29.9
5.7,11.9678262448391,26.256307480678,0.00180580247117384,-0.000230256354352443,5,11.4,29.9
5.73333333333333,11.9678262448391,26.256307480678,0.00150656545062886,-0.000299237020544982,5,11.3666666666667,29.9
5.76666666666667,11.9678262448391,26.256307480678,0.00116253082260749,-0.000344034628021377,5,11.3333333333333,29.9
5.8,11.9678262448391,26.256307480678,0.000797564737890964,-0.000364966084716521,5,11.3,29.9
5.83333333333333,11.9678262448391,26.256307480678,0.000433900521119792,-0.000363664216771172,5,11.2666666666667,29.9
5.86666666666667,11.9678262448391,26.256307480678,9.10734664663126e-05,-0.000342827054653479,5,11.2333333333333,29.9
5.9,11.9678262448391,26.256307480678,0.000214860985731259,0.000123787519264947,5,11.2,29.9
5.93333333333333,11.9678262448391,26.256307480678,0.000471814185439247,0.000256953199707987,5,11.1666666666667,29.9
5.96666666666667,11.9678262448391,26.256307480678,0.000671863967496052,0.000200049782056805,5,11.1333333333333,29.9
6,11.9678262448391,26.256307480678,0.000811190968349282,0.00013932700085323,5,11.1,29.9
6.03333333333333,11.9678262448391,26.256307480678,0.000889788103339661,7.85971349903794e-05,5,11.0666666666667,29.9
6.06666666666667,11.9678262448391,26.256307480678,0.000910988563775471,2.12004604358103e-05,5,11.0333333333333,29.9
6.1,11.9678262448391,26.256307480678,0.000880862633004985,-3.0125930770486e-05,5,11,29.9
6.13333333333333,11.9678262448391,26.256307480678,0.000807534895971836,-7.3327737033149e-05,5,10.9666666666667,29.9
6.16666666666667,11.9678262448391,26.256307480678,0.00070047143974038,-0.000107063456231456,5,10.9333333333333,29.9
6.2,11.9678262448391,26.256307480678,0.000569781968802452,-0.000130689470937929,5,10.9,29.9
6.23333333333333,11.9678262448391,26.256307480678,0.000425575033019593,-0.000144206935782858,5,10.8666666666667,29.9
6.26666666666667,11.9678262448391,26.256307480678,0.00027739646885498,-0.000148178564164614,5,10.8333333333333,29.9
6.3,11.9678262448391,26.256307480678,0.000133772356804362,-0.000143624112050617,5,10.8,29.9
6.33333333333333,11.9678262448391,26.256307480678,1.86892036671904e-06,-0.000131903436437643,5,10.7666666666667,29.9
6.36666666666667,11.9678262448391,26.256307480678,0.000112726625640913,0.000110857705274194,5,10.7333333333333,29.9
6.4,11.9678262448391,26.256307480678,0.000206107789631128,9.33811639902153e-05,5,10.7,29.9
6.43333333333333,11.9678262448391,26.256307480678,0.000276042892365965,6.99351027348368e-05,5,10.6666666666667,29.9
