Time,x_ego,y_ego,velocity,acceleration,action,x_ped,y_ped
0,11.8,15.9,5,0,1,15.5,29.9
0.0333333333333333,11.8,16.0666076888419,4.99642261439338,-0.0035773856066168,1,15.4502170138889,29.9
0.0666666666666667,11.8,16.2330926531145,4.99264756783477,-0.00377504655861216,1,15.4008680555556,29.9
0.1,11.8,16.399449296924,4.98873130122091,-0.00391626661385835,1,15.351953125,29.9
0.133333333333333,11.8,16.5656736245138,4.98471426828108,-0.00401703293983147,1,15.3034722222222,29.9
0.166666666666667,11.8,16.7317627870126,4.98062546389497,-0.00408880438611448,1,15.2554253472222,29.9
0.2,11.8,16.8977147575669,4.97648566969706,-0.00413979419790333,1,15.2078125,29.9
0.233333333333333,11.8,17.063528098494,4.97230978036584,-0.00417588933122204,1,15.1606336805556,29.9
0.266666666666667,11.8,17.2292017943893,4.96810847105553,-0.00420130931030815,1,15.1138888888889,29.9
0.3,11.8,17.3947351325064,4.96388939262275,-0.00421907843277847,1,15.067578125,29.9
0.333333333333333,11.8,17.5601276170202,4.95965802839236,-0.00423136423039949,1,15.0217013888889,29.9
0.366666666666667,11.8,17.7253789075748,4.95541830829244,-0.00423972009991047,1,14.9762586805556,29.9
0.4,11.8,17.8904887752388,4.95117304903021,-0.00424525926223307,1,14.93125,29.9
0.433333333333333,11.8,18.0554570709351,4.94692426953351,-0.00424877949670321,1,14.8866753472222,29.9
0.466666666666667,11.8,18.2202837028143,4.94267341695966,-0.00425085257384605,1,14.8425347222222,29.9
0.5,11.8,18.3849686200364,4.93842152859998,-0.00425188835968093,1,14.798828125,29.9
0.533333333333333,11.8,18.5495118011469,4.93416934785826,-0.00425218074171951,1,14.7555555555556,29.9
0.566666666666667,11.8,18.7139132457448,4.92991740734792,-0.00425194051033717,1,14.7127170138889,29.9
0.6,11.8,18.8781729685112,4.9256660884612,-0.00425131888672592,1,14.6703125,29.9
0.633333333333333,11.8,19.0422909949291,4.92141566410698,-0.00425042435422096,1,14.6283420138889,29.9
0.666666666666667,11.8,19.2062673582159,4.91716632940257,-0.00424933470440969,1,14.5868055555556,29.9
0.7,11.8,19.3701020971241,4.91291822373206,-0.00424810567050482,1,14.545703125,29.9
0.733333333333333,11.8,19.5337952543655,4.9086714466029,-0.0042467771291621,1,14.5050347222222,29.9
0.766666666666667,11.8000030057965,19.6972887440032,4.90093825526374,-0.00773319133916406,1,14.4648003472222,29.9
0.8,11.8000223070988,19.8604957901876,4.89148501127992,-0.00945324398381953,1,14.425,29.9
0.833333333333333,11.8000694167543,20.0232722293305,4.87510237878315,-0.0163826324967635,1,14.3856336805556,29.9
0.866666666666667,11.8001509699052,20.1854452274085,4.85527955511105,-0.0198228236721061,3,14.3467013888889,29.9
0.9,11.8002695144309,20.3468419891276,4.82852983108766,-0.0267497240233903,3,14.308203125,29.9
0.933333333333333,11.8004244821171,20.5071455286764,4.78968852095609,-0.0388413101315637,3,14.2701388888889,29.9
0.966666666666667,11.8006131638606,20.6660389369455,4.74392464416492,-0.0457638767911694,3,14.2325086805556,29.9
1,11.8008315005097,20.8231476216608,4.68260823788822,-0.0613164062767071,3,14.1953125,29.9
1.03333333333333,11.8010747190203,20.9780683963803,4.61265332112885,-0.069954916759368,3,14.1585503472222,29.9
1.06666666666667,11.8013378816458,21.1306001972552,4.53927309424189,-0.0733802268869628,3,14.1222222222222,29.9
1.1,11.8016161534368,21.2805707558748,4.45898215420314,-0.0802909400387506,3,14.086328125,29.9
1.13333333333333,11.8019050303914,21.4278078887394,4.37527088901212,-0.0837112651910141,3,14.0508680555556,29.9
1.16666666666667,11.8022005064784,21.5721394872392,4.28465342015332,-0.0906174688588068,3,14.0158420138889,29.9
1.2,11.8024992164686,21.713393151294,4.19059794851617,-0.0940554716371444,3,13.98125,29.9
1.23333333333333,11.8027985862041,21.8514546773804,4.0931279213328,-0.0974700271833706,3,13.9470920138889,29.9
1.26666666666667,11.8030968640598,21.9862386188555,3.99394509149101,-0.0991828298417867,3,13.9133680555556,29.9
1.3,11.8033930372744,22.1176305069635,3.88960628897491,-0.104338802516101,3,13.9133680555556,29.9
1.33333333333333,11.8036867734864,22.2455162799777,3.78357894169265,-0.106027347282262,3,13.9133680555556,29.9
1.36666666666667,11.8039783709069,22.369868385879,3.67758617285275,-0.105992768839898,3,13.9133680555556,29.9
1.4,11.8042684893791,22.490688000729,3.57162863894136,-0.105957533911388,3,13.9133680555556,29.9
1.43333333333333,11.8045578460581,22.6079476139651,3.46398471482726,-0.107643924114099,3,13.9133680555556,29.9
1.46666666666667,11.8048470858823,22.7216484320084,3.35809926364633,-0.105885451180939,3,13.9133680555556,29.9
1.5,11.8051366128792,22.8318203703052,3.25225031154594,-0.105848952100383,3,13.9133680555556,29.9
1.53333333333333,11.8054263492023,22.9384359397799,3.1447158848923,-0.107534426653639,3,13.9133680555556,29.9
1.56666666666667,11.8057157931971,23.0414676553888,3.03721839335819,-0.107497491534117,3,13.9133680555556,29.9
1.6,11.8060041084416,23.1409167380222,2.92975788779265,-0.107460505565539,3,13.9133680555556,29.9
1.63333333333333,11.806290172678,23.2367844087015,2.82233429046546,-0.10742359732719,3,13.9133680555556,29.9
1.66666666666667,11.8065726488557,23.3290428208291,2.71320348319504,-0.109130807270414,3,13.9133680555556,29.9
1.7,11.8068501685886,23.4176641288529,2.60410936037944,-0.109094122815604,3,13.9133680555556,29.9
1.73333333333333,11.8071214995219,23.5026495540331,2.49505173950871,-0.109057620870732,3,13.9133680555556,29.9
1.76666666666667,11.8073855680657,23.5840003157122,2.38603041438945,-0.109021325119255,3,13.9133680555556,29.9
1.8,11.8076415064186,23.6617176299007,2.27704519156153,-0.10898522282792,3,13.9133680555556,29.9
1.83333333333333,11.8078889125974,23.7358033220282,2.16818597489154,-0.108859216669988,3,13.9133680555556,29.9
1.86666666666667,11.8081287086585,23.8062732310453,2.06031296608185,-0.107873008809691,3,13.9133680555556,29.9
1.9,11.8083626752508,23.8731788417446,1.95442393622237,-0.105889029859481,3,13.9133680555556,29.9
1.93333333333333,11.8085925761979,23.9365927977425,1.85083051859443,-0.103593417627945,3,13.9133680555556,29.9
1.96666666666667,11.8088209843404,23.9965924151529,1.74955701615808,-0.101273502436345,3,13.9133680555556,29.9
2,11.8090503160198,24.0532536745075,1.65050920064575,-0.0990478155123296,3,13.9133680555556,29.9
2.03333333333333,11.8092818470621,24.1066491037526,1.55360036917442,-0.0969088314713282,3,13.9133680555556,29.9
2.06666666666667,11.8095156937024,24.1568491058948,1.45877197189985,-0.0948283972745767,3,13.9133680555556,29.9
2.1,11.8097510334909,24.2039216807405,1.36594771573631,-0.0928242561635335,3,13.9133680555556,29.9
2.13333333333333,11.8099863448566,24.2479328477717,1.27508127220949,-0.0908664435268232,3,13.9133680555556,29.9
2.16666666666667,11.8102196373616,24.2889467781168,1.18610358129778,-0.088977690911711,3,13.9133680555556,29.9
2.2,11.8104486562163,24.3270254328972,1.09896053680804,-0.0871430444897381,3,13.9133680555556,29.9
2.23333333333333,11.8106709759818,24.3622012517655,1.01194658668726,-0.0870139501207841,3,13.9133680555556,29.9
2.26666666666667,11.8108843107269,24.3945373624227,0.928590692018557,-0.083355894668701,3,13.9133680555556,29.9
2.3,11.811086708979,24.4241570775059,0.848962322597496,-0.0796283694210611,3,13.9133680555556,29.9
2.33333333333333,11.8112764536105,24.4511832521708,0.772952211942475,-0.0760101106550213,3,13.9133680555556,29.9
2.36666666666667,11.8114520027701,24.4757054945505,0.698705019227411,-0.0742471927150637,3,13.9133680555556,29.9
2.4,11.8116120075487,24.4977808194848,0.626124503589359,-0.072580515638052,3,13.9133680555556,29.9
2.43333333333333,11.811755500229,24.517493105663,0.556924403776858,-0.0692000998125007,3,13.9133680555556,29.9
2.46666666666667,11.8118817974676,24.5349265661254,0.489392833631988,-0.0675315701448695,3,13.9133680555556,29.9
2.5,11.8119904789631,24.550165788696,0.425264490703375,-0.0641283429286138,3,13.9133680555556,29.9
2.53333333333333,11.8120813514092,24.5632944314416,0.362743482119425,-0.0625210085839497,3,13.9133680555556,29.9
2.56666666666667,11.8121543119704,24.5743647020595,0.301748482361976,-0.0609949997574487,3,13.9133680555556,29.9
2.6,11.8122095029645,24.5834548992994,0.24392709546546,-0.0578213868965167,3,13.9133680555556,29.9
2.63333333333333,11.8122472756756,24.5906695972291,0.189214226861101,-0.0547128686043587,3,13.9133680555556,29.9
2.66666666666667,11.8122681617484,24.5961417427461,0.139391638294306,-0.049822588566795,3,13.9133680555556,29.9
2.7,11.8122729451674,24.6000639233738,0.09622736383565,-0.043164274458656,3,13.9133680555556,29.9
2.73333333333333,11.8122629184768,24.6027731433295,0.0666184991097539,-0.0296088647258961,3,13.9133680555556,29.9
2.76666666666667,11.8122398480298,24.6047473159921,0.0521220341386551,-0.0144964649710988,5,13.9133680555556,29.9
2.8,11.8122058548597,24.6065730697475,0.0576875853662599,0.00556555122760485,5,13.9133680555556,29.9
2.83333333333333,11.8121632256231,24.608885234973,0.0812461113973136,0.0235585260310537,4,13.9133680555556,29.9
2.86666666666667,11.8121138715991,24.6121903769804,0.117193316561699,0.0359472051643857,4,13.9133680555556,29.9
2.9,11.8120594921936,24.6168952537633,0.165163239663612,0.0479699231019129,4,13.9133680555556,29.9
2.93333333333333,11.812001292906,24.6231915828576,0.21263297532908,0.0474697356654683,4,13.9133680555556,29.9
2.96666666666667,11.8119400714312,24.6310574875527,0.259320784190013,0.0466878088609321,4,13.9133680555556,29.9
3,11.8118769259164,24.6404647334964,0.30512643998005,0.0458056557900376,4,13.9133680555556,29.9
3.03333333333333,11.8118132850192,24.6513836212596,0.35002913924204,0.0449026992619896,4,13.9133680555556,29.9
3.06666666666667,11.8117509075882,24.6637839910088,0.394017445355396,0.0439883061133564,4,13.9133680555556,29.9
3.1,11.8116918605715,24.6776354678454,0.437087359092415,0.0430699137370188,4,13.9133680555556,29.9
3.13333333333333,11.8116384765596,24.6929076358564,0.479239060718082,0.0421517016256671,4,13.9133680555556,29.9
3.16666666666667,11.8115932903488,24.7095698103239,0.520455494934529,0.0412164342164466,4,13.9133680555556,29.9
3.2,11.8115589564806,24.7275905451601,0.560718244559126,0.0402627496245975,4,13.9133680555556,29.9
3.23333333333333,11.8115381534483,24.7469379134031,0.600021267166034,0.039303022606908,4,13.9133680555556,29.9
3.26666666666667,11.8115334767225,24.7675798633607,0.63836716589158,0.0383458987255458,4,13.9133680555556,29.9
3.3,11.8115473254943,24.7894844756221,0.67576424682466,0.0373970809330804,4,13.9133680555556,29.9
3.33333333333333,11.8115817896379,24.8126202205358,0.712233459312317,0.0364692124876563,4,13.9133680555556,29.9
3.36666666666667,11.8116385453814,24.8369569011657,0.747832238059156,0.0355987787468398,4,13.9133680555556,29.9
3.4,11.8117187640094,24.8624663409677,0.782616626434582,0.0347843883754259,4,13.9133680555556,29.9
3.43333333333333,11.8118230379892,24.8891220825403,0.816631416182041,0.034014789747459,4,13.9133680555556,29.9
3.46666666666667,11.8119513323316,24.9168990725934,0.849913269686795,0.0332818535047533,4,13.9133680555556,29.9
3.5,11.8121029654083,24.9457734268004,0.88249304590185,0.0325797762150554,4,13.9133680555556,29.9
3.53333333333333,11.8122766216103,24.975722248847,0.914396612535669,0.031903566633819,4,13.9133680555556,29.9
3.56666666666667,11.8124703955711,25.0067231571373,0.945620015245786,0.0312234027101166,4,13.9133680555556,29.9
3.6,11.8126818651331,25.0387529786659,0.976129427899242,0.0305094126534562,4,13.9133680555556,29.9
3.63333333333333,11.8129081955425,25.0717876237004,1.00590604100061,0.029776613101368,4,13.9133680555556,29.9
3.66666666666667,11.8131462686811,25.1058025718256,1.0349427207259,0.0290366797252903,4,13.9133680555556,29.9
3.7,11.8133928287764,25.1407731770895,1.06324041146577,0.0282976907398726,4,13.9133680555556,29.9
3.73333333333333,11.8136446373714,25.1766749346654,1.09080745801914,0.0275670465533704,4,13.9133680555556,29.9
3.76666666666667,11.81389862911,25.2134836932545,1.11765725417122,0.0268497961520766,4,13.9133680555556,29.9
3.8,11.8141520596219,25.2511758028991,1.14380756749471,0.0261503133234908,4,13.9133680555556,29.9
3.83333333333333,11.8144026379802,25.2897284680708,1.16929478747513,0.0254872199804226,4,13.9133680555556,29.9
3.86666666666667,11.8146486362034,25.3291203315025,1.19416366255108,0.0248688750759503,4,13.9133680555556,29.9
3.9,11.814888966394,25.3693314182801,1.21845194384836,0.0242882812972762,4,13.9133680555556,29.9
3.93333333333333,11.8151231487274,25.4103443866763,1.24235075797871,0.0238988141303533,4,13.9133680555556,29.9
3.96666666666667,11.8153511331704,25.4521567910045,1.26656791657019,0.0242171585914746,4,13.9133680555556,29.9
4,11.8155735052616,25.4947960986405,1.29216119637796,0.0255932798077771,4,13.9133680555556,29.9
4.03333333333333,11.8157913292375,25.53832960084,1.32046297617169,0.0283017797937273,4,13.9133680555556,29.9
4.06666666666667,11.8160063759448,25.5828725637948,1.35296818724909,0.0325052110773951,4,13.9133680555556,29.9
4.1,11.8162210296292,25.6285875952482,1.39097622847721,0.0380080412281236,4,13.9133680555556,29.9
4.13333333333333,11.8164378705862,25.675675156588,1.43544762134796,0.0444713928707543,4,13.9133680555556,29.9
4.16666666666667,11.8166598305314,25.7243618304933,1.48700282334296,0.0515552019949972,4,13.9133680555556,29.9
4.2,11.8168901413165,25.7748902054278,1.54598537228148,0.0589825489385163,4,13.9133680555556,29.9
4.23333333333333,11.8171321747731,25.8275098552111,1.61246853068947,0.0664831584079932,4,13.9133680555556,29.9
4.26666666666667,11.8173892719856,25.8824678150108,1.68622909026107,0.0737605595715962,4,13.9133680555556,29.9
4.3,11.817664575339,25.9399998138335,1.76682447998535,0.0805953897242846,4,13.9133680555556,29.9
4.33333333333333,11.8179608797074,26.0003237185155,1.85363219051366,0.0868077105283089,4,13.9133680555556,29.9
4.36666666666667,11.8182805122214,26.0636344116446,1.94590616288885,0.0922739723751884,4,13.9133680555556,29.9
4.4,11.8186252550121,26.130100666319,2.04283434498434,0.0969281820954881,4,13.9133680555556,29.9
4.43333333333333,11.8189963199753,26.1998638276088,2.14359133604527,0.100756991060929,4,13.9133680555556,29.9
4.46666666666667,11.819394149902,26.2730380564096,2.24737498895349,0.103783652908227,4,13.9133680555556,29.9
4.5,11.8198175797652,26.3497114834817,2.35342867558322,0.106053686629727,4,13.9133680555556,29.9
4.53333333333333,11.8202637178009,26.4299482375688,2.461082463055,0.107653787471782,4,13.9133680555556,29.9
4.56666666666667,11.8207282548485,26.5137932087673,2.56985739399397,0.108774930938964,4,13.9133680555556,29.9
4.6,11.8212056868674,26.6012773639882,2.67937536034137,0.109517966347408,4,13.9133680555556,29.9
4.63333333333333,11.8216890406173,26.6924199296779,2.7893091106308,0.109933750289429,4,13.9133680555556,29.9
4.66666666666667,11.822171845159,26.7872299754069,2.89937581830102,0.110066707670214,4,13.9133680555556,29.9
4.7,11.822649797499,26.8857078553595,3.00933741288681,0.109961594585798,4,13.9133680555556,29.9
4.73333333333333,11.8231197242115,26.987846713897,3.11899417149855,0.109656758611732,4,13.9133680555556,29.9
4.76666666666667,11.8235791985342,27.0936325178752,3.22810427287994,0.109110101381396,4,13.9133680555556,29.9
4.8,11.8240267243071,27.2030431688421,3.33644902911565,0.108344756235706,4,13.9133680555556,29.9
4.83333333333333,11.8244630294808,27.3160505391045,3.44388315630516,0.107434127189509,4,13.9133680555556,29.9
4.86666666666667,11.8248908435666,27.4326225761856,3.55031288161869,0.106429725313531,4,13.9133680555556,29.9
4.9,11.8253141418501,27.5527246670965,3.65567574770049,0.105362866081804,4,13.9133680555556,29.9
4.93333333333333,11.8257373972899,27.6763204608793,3.75992822367012,0.104252475969629,4,13.9133680555556,29.9
4.96666666666667,11.8261649298154,27.8033723018345,3.8630272489776,0.103099025307479,4,13.9133680555556,29.9
5,11.8266004039121,27.9338400552094,3.96486611046515,0.101838861487547,4,13.9133680555556,29.9
5.03333333333333,11.8270465074922,28.0676805020499,4.06538844419722,0.10052233373207,4,13.9133680555556,29.9
5.06666666666667,11.8275048190681,28.2048498777359,4.16460950840068,0.0992210642034594,4,13.9133680555556,29.9
5.1,11.8279758232808,28.3453055448311,4.26257677851379,0.0979672701131129,4,13.9133680555556,29.9
5.13333333333333,11.8284590400224,28.4890067187264,4.35935200321371,0.0967752246999245,4,13.9133680555556,29.9
5.16666666666667,11.8289532296013,28.6359146791076,4.4549921961826,0.0956401929688839,4,13.9133680555556,29.9
5.2,11.8294566341935,28.7859922240142,4.54953120071359,0.0945390045309882,4,13.9133680555556,29.9
5.23333333333333,11.8299672233459,28.9392029516831,4.64298512376485,0.0934539230512614,4,13.9133680555556,29.9
5.26666666666667,11.8304829178157,29.0955109397637,4.73536871474731,0.0923835909824646,4,13.9133680555556,29.9
5.3,11.8310017708951,29.2548805878247,4.82667185935415,0.0913031446068384,4,13.9133680555556,29.9
5.33333333333333,11.8315220833272,29.4172732374563,4.9167170035865,0.090045144232354,4,13.9133680555556,29.9
5.36666666666667,11.8320424696692,29.5826461841951,5.00551544543073,0.088798441844224,4,13.9133680555556,29.9
5.4,11.83256190135,29.7509601093088,5.09318343141897,0.0876679859882445,4,13.9133680555556,29.9
5.43333333333333,11.8330796746842,29.9221783010932,5.17978575787099,0.0866023264520122,4,13.9133680555556,29.9
5.46666666666667,11.8335953513512,30.096266976934,5.26543221505418,0.0856464571831976,4,13.9133680555556,29.9
5.5,11.8341086840879,30.273196231129,5.35023500101906,0.0848027859648761,4,13.9133680555556,29.9
5.53333333333333,11.8346195349496,30.4529397773234,5.43431483144988,0.084079830430821,4,13.9133680555556,29.9
5.56666666666667,11.8351278086959,30.6354767883145,5.51788944503765,0.0835746135877713,4,13.9133680555556,29.9
5.6,11.83563340681,30.8207953627093,5.60125403860818,0.0833645935705247,4,13.9133680555556,29.9
5.63333333333333,11.8361361896404,31.0088927562211,5.68465044076154,0.0833964021533662,4,13.9133680555556,29.9
5.66666666666667,11.8366359478778,31.1997724930279,5.76820276017966,0.0835523194181134,4,13.9133680555556,29.9
5.7,11.8371323880858,31.3934404758175,5.85194921570539,0.0837464555257377,4,13.9133680555556,29.9
5.73333333333333,11.8376251386719,31.5899035737027,5.93590576955835,0.0839565538529587,4,13.9133680555556,29.9
5.76666666666667,11.8381137613556,31.7891675969954,6.01997668897768,0.0840709194193305,4,13.9133680555556,29.9
5.8,11.8385977606943,31.9912336839256,6.10400282249537,0.0840261335176917,4,13.9133680555556,29.9
5.83333333333333,11.8390766009153,32.1960974158655,6.18778644968862,0.0837836271932497,4,13.9133680555556,29.9
5.86666666666667,11.8395497109977,32.4037448783743,6.27095377315173,0.0831673234631101,4,13.9133680555556,29.9
5.9,11.8400164842361,32.61414794759,6.35303108596875,0.0820773128170194,4,13.9133680555556,29.9
5.93333333333333,11.8404762770512,32.8272603068118,6.43339409286398,0.0803630068952303,4,13.9133680555556,29.9
5.96666666666667,11.8409284038251,33.0430126809155,6.51129379334077,0.0778997004767907,4,13.9133680555556,29.9
6,11.8413721252256,33.2613055982035,6.58556677845445,0.0742729851136783,4,13.9133680555556,29.9
6.03333333333333,11.8418068603885,33.4820942452971,6.66350029213436,0.0779335136799046,4,13.9133680555556,29.9
6.06666666666667,11.8422326934925,33.705604602716,6.74753825736581,0.0840379652314498,4,13.9133680555556,29.9
6.1,11.8426493615942,33.9319250501941,6.83125740259613,0.0837191452303179,4,13.9133680555556,29.9
6.13333333333333,11.8430561884274,34.1609693654426,6.91036623644787,0.0791088338517447,4,13.9133680555556,29.9
6.16666666666667,11.8434522423515,34.3925314759669,6.98195886606681,0.0715926296189444,4,13.9133680555556,29.9
6.2,11.843836459829,34.6263282106655,7.04417478794287,0.0622159218760512,4,13.9133680555556,29.9
6.23333333333333,11.8442077229284,34.8620238737514,7.09572206757148,0.0515472796286138,4,13.9133680555556,29.9
6.26666666666667,11.8445649149698,35.0992468692077,7.13565513503742,0.0399330674659391,4,13.9133680555556,29.9
6.3,11.8449069647862,35.3376032348507,7.1639690115969,0.0283138765594853,4,13.9133680555556,29.9
