Time,x_ego,y_ego,velocity,acceleration,action,x_ped,y_ped
0,11.8,15.9,7,0,1,15.5,29.9
0.0333333333333333,11.7999991556326,16.133270379394,6.9961557798823,-0.00384422011770269,1,15.5,29.9
0.0666666666666667,11.7999938724217,16.3664065988009,6.99196947498367,-0.00418630489862348,1,15.5,29.9
0.1,11.799981290911,16.5994007551861,6.98769500047537,-0.00427447450830609,1,15.5,29.9
0.133333333333333,11.799959928311,16.8322537848708,6.98349768237817,-0.0041973180971997,1,15.5,29.9
0.166666666666667,11.7999292675115,17.064967878987,6.9793558991536,-0.00414178322456493,1,15.5,29.9
0.2,11.7998893888109,17.2975446157421,6.97525415530547,-0.00410174384813455,1,15.5,29.9
0.233333333333333,11.7998406878021,17.5299851341457,6.97118134647772,-0.00407280882774508,1,15.5,29.9
0.266666666666667,11.7997836887301,17.76229025851,6.96712951555286,-0.00405183092486805,1,15.5,29.9
0.3,11.7997189398368,17.9944605876619,6.9630929607827,-0.00403655477015707,1,15.5,29.9
0.333333333333333,11.7996469661865,18.2264965588621,6.95906759649829,-0.00402536428440392,1,15.5,29.9
0.366666666666667,11.7995682542707,18.4583984935997,6.95505049501719,-0.00401710148110634,1,15.5,29.9
0.4,11.7994832480002,18.6901666304015,6.95103955844974,-0.00401093656744589,1,15.5,29.9
0.433333333333333,11.7993923439172,18.9218011483377,6.94703328355868,-0.00400627489105787,1,15.5,29.9
0.466666666666667,11.7992958815275,19.1533021838602,6.94303059324841,-0.00400269031027456,1,15.5,29.9
0.5,11.7991941305593,19.3846698428662,6.93903071576646,-0.00399987748194697,1,15.5,29.9
0.533333333333333,11.7990872798548,19.6159042093404,6.93503309808947,-0.00399761767699491,1,15.5,29.9
0.566666666666667,11.7989754326791,19.8470053515472,6.93103734382374,-0.00399575426572962,1,15.5,29.9
0.6,11.7988586113389,20.0779733264704,6.92704316870383,-0.00399417511991107,1,15.5,29.9
0.633333333333333,11.7987367712691,20.3088081829978,6.92305036873156,-0.00399279997226998,1,15.5,29.9
0.666666666666667,11.7986098222063,20.5395099642075,6.91905879739163,-0.00399157133992745,1,15.5,29.9
0.7,11.7984776524496,20.7700787090112,6.91506834937421,-0.00399044801741599,1,15.5,29.9
0.733333333333333,11.7983401518047,21.0005144533354,6.91107894894945,-0.0039894004247687,1,15.5,29.9
0.766666666666667,11.7981972295258,21.2308172309702,6.90709054165695,-0.00398840729249095,1,15.5,29.9
0.8,11.7980488250494,21.4609870741784,6.90310308835145,-0.00398745330550732,1,15.5,29.9
0.833333333333333,11.7978949110564,21.6910240141309,6.89911656092095,-0.00398652743049688,1,15.5,29.9
0.866666666666667,11.7977354899653,21.9209280812169,6.89513093919432,-0.00398562172662675,1,15.5,29.9
0.9,11.7975705860071,22.1506993052636,6.89114620869842,-0.00398473049590287,1,15.5,29.9
0.933333333333333,11.7974002354391,22.3803377156906,6.88716235902748,-0.00398384967094501,1,15.5,29.9
0.966666666666667,11.7972244772446,22.6098433416198,6.88317938265898,-0.00398297636849332,1,15.5,29.9
1,11.7970433460193,22.8392162119523,6.87919727409937,-0.00398210855961612,1,15.5,29.9
1.03333333333333,11.7968568678889,23.0684563554241,6.87521602927541,-0.0039812448239589,1,15.5,29.9
1.06666666666667,11.7966650594643,23.2975638006468,6.87123564510873,-0.00398038416667834,1,15.5,29.9
1.1,11.7964679292076,23.5265385761377,6.86725611922461,-0.0039795258841151,1,15.5,29.9
1.13333333333333,11.7962654802294,23.7553807103427,6.86327744975651,-0.00397866946810588,1,15.5,29.9
1.16666666666667,11.796057713487,23.9840902316535,6.85929963521556,-0.00397781454095103,1,15.5,29.9
1.2,11.7958446305414,24.2126671684206,6.85532267440179,-0.00397696081377052,1,15.5,29.9
1.23333333333333,11.7956262353516,24.4411115489628,6.85134656634014,-0.00397610806164383,1,15.5,29.9
1.26666666666667,11.7954025349479,24.6694234015729,6.84737131023052,-0.00397525610962113,1,15.5,29.9
1.3,11.7951735391232,24.8976027545226,6.84339690540567,-0.00397440482484868,1,15.5,29.9
1.33333333333333,11.7949392594808,25.1256496360638,6.83942335129446,-0.00397355411121136,1,15.5,29.9
1.36666666666667,11.7946997082379,25.3535640744306,6.83545064739014,-0.00397270390432514,1,15.5,29.9
1.4,11.7944548971447,25.5813460978395,6.83147879322426,-0.00397185416587931,1,15.5,29.9
1.43333333333333,11.7942048367602,25.8089957344897,6.82750778834708,-0.00397100487717772,1,15.5,29.9
1.46666666666667,11.7939495361804,26.036513012564,6.82353763231461,-0.00397015603247119,1,15.5,29.9
1.5,11.7936890031841,26.2638979602289,6.81956832468183,-0.00396930763277492,1,15.5,29.9
1.53333333333333,11.7934232446668,26.4911506056357,6.81559986500098,-0.00396845968085646,1,15.4916666666667,29.9
1.56666666666667,11.7931522671952,26.718270976921,6.81163225282307,-0.00396761217790154,1,15.4666666666667,29.9
1.6,11.7928760775237,26.9452591022079,6.80766548770123,-0.00396676512184779,1,15.425,29.9
1.63333333333333,11.7925946829593,27.172115009606,6.80369956919394,-0.00396591850728356,1,15.3752276867031,29.9
1.66666666666667,11.7923080915214,27.3988387272121,6.79973449686759,-0.00396507232635201,1,15.3259107468124,29.9
1.7,11.7920163119048,27.6254302831103,6.79577027029734,-0.00396422657025219,1,15.2770491803279,29.9
1.73333333333333,11.7917193532971,27.8518897053714,6.79180688906658,-0.00396338123075957,1,15.2286429872495,29.9
1.76666666666667,11.7914164448787,28.0782170211245,6.78784436319281,-0.00396252587376544,1,15.1806921675774,29.9
1.8,11.7911042621056,28.3044122543095,6.78388269823221,-0.00396166496060069,1,15.1331967213115,29.9
1.83333333333333,11.7907801391971,28.5304754293212,6.7799218879745,-0.00396081025771089,1,15.0861566484517,29.9
1.86666666666667,11.7904426827984,28.7564065718165,6.77596192576455,-0.00395996220995354,1,15.0395719489982,29.9
1.9,11.790091407267,28.9822057083925,6.77200280521342,-0.00395912055112646,1,14.9934426229508,29.9
1.93333333333333,11.7897255806806,29.2078728651759,6.76804454135243,-0.00395826386098896,1,14.9477686703097,29.9
1.96666666666667,11.7893420995713,29.433408064791,6.76408714422664,-0.00395739712579157,1,14.9025500910747,29.9
2,11.7889386829859,29.6588113304313,6.76013060062888,-0.0039565435977611,1,14.8577868852459,29.9
2.03333333333333,11.7885144155274,29.8840826868096,6.75617489767728,-0.00395570295160397,1,14.8134790528233,29.9
2.06666666666667,11.7880693162202,30.1092221598342,6.75222002516526,-0.00395487251201665,1,14.7696265938069,29.9
2.1,11.7876039684123,30.334229776308,6.74826597706977,-0.00395404809548783,1,14.7262295081967,29.9
2.13333333333333,11.7871192373786,30.559105563666,6.74431275148624,-0.00395322558353328,1,14.6832877959927,29.9
2.16666666666667,11.7866160768129,30.783849549754,6.74036034949296,-0.0039524019932804,1,14.6408014571949,29.9
2.2,11.7860954100458,31.008461762648,6.73640877372832,-0.00395157576463401,1,14.5987704918033,29.9
2.23333333333333,11.785558065631,31.2329422305114,6.73245802722859,-0.00395074649973104,1,14.5571948998179,29.9
2.26666666666667,11.7850047475398,31.4572909814835,6.72850811272733,-0.00394991450126625,1,14.5160746812386,29.9
2.3,11.7844360247218,31.6815080435939,6.72455903237173,-0.00394908035559371,1,14.4754098360656,29.9
2.33333333333333,11.7838523305745,31.9055934446986,6.72061078770793,-0.00394824466380062,1,14.4352003642987,29.9
2.36666666666667,11.7832539679738,32.1295472124349,6.71666337978596,-0.00394740792197545,1,14.3954462659381,29.9
2.4,11.7826411188701,32.3533693741967,6.71271680928091,-0.0039465705050441,1,14.3561475409836,29.9
2.43333333333333,11.782013858839,32.5770599571317,6.70877107657991,-0.0039457327010064,1,14.3173041894353,29.9
2.46666666666667,11.781372176775,32.8006189881609,6.7048261818254,-0.00394489475450488,1,14.2789162112933,29.9
2.5,11.780715998834,33.0240464940183,6.70088212492893,-0.0039440568964757,1,14.2409836065574,29.9
2.53333333333333,11.780045214519,33.2473425013046,6.69693890557638,-0.00394321935254638,1,14.2035063752277,29.9
2.56666666666667,11.7793597020119,33.470507036548,6.69299652324302,-0.00394238233336353,1,14.1664845173042,29.9
2.6,11.7786593497919,33.6935401262619,6.68905497722794,-0.00394154601507246,1,14.1299180327869,29.9
2.63333333333333,11.7779440722237,33.9164417969926,6.68511426670884,-0.00394071051910938,1,14.0938069216758,29.9
2.66666666666667,11.7772138179397,34.1392120753508,6.68117439081004,-0.00393987589879163,1,14.0581511839709,29.9
2.7,11.7764685711539,34.3618509880245,6.67723534867281,-0.00393904213722873,1,14.0229508196721,29.9
2.73333333333333,11.7757083471892,34.5843585617756,6.67329713951514,-0.00393820915767051,1,13.9882058287796,29.9
2.76666666666667,11.7749331842556,34.8067348234226,6.66935976267128,-0.00393737684386508,1,13.9539162112933,29.9
2.8,11.7741431337608,35.028979799817,6.66542321760571,-0.0039365450655664,1,13.9200819672131,29.9
2.83333333333333,11.7733382512033,35.2510935178181,6.66148750390258,-0.00393571370313506,1,13.9200819672131,29.9
2.86666666666667,11.7725185891227,35.4730760042713,6.65755262123646,-0.00393488266612252,1,13.9200819672131,29.9
2.9,11.7716841928372,35.6949272859945,6.65361856933373,-0.00393405190272311,1,13.9200819672131,29.9
2.93333333333333,11.770835098983,35.9166473897705,6.649685347934,-0.00393322139973051,1,13.9200819672131,29.9
2.96666666666667,11.7699713363165,36.1382363423486,6.64575295675905,-0.00393239117495003,1,13.9200819672131,29.9
3,11.7690929279273,36.3596941704496,6.64182139549377,-0.00393156126528105,1,13.9200819672131,29.9
3.03333333333333,11.7681998939566,36.5810209007743,6.63789066377981,-0.00393073171396097,1,13.9200819672131,29.9
3.06666666666667,11.7672922540604,36.8022165600111,6.63396076121997,-0.00392990255984405,1,13.9200819672131,29.9
3.1,11.7663700291295,37.023281174842,6.63003168738956,-0.00392907383040519,1,13.9200819672131,29.9
3.13333333333333,11.7654332420861,37.2442147719459,6.6261034418505,-0.0039282455390568,1,13.9200819672131,29.9
3.16666666666667,11.764481917841,37.4650173779983,6.62217602416428,-0.0039274176862234,1,13.9200819672131,29.9
3.2,11.7635160826706,37.6856890196695,6.61824943390129,-0.00392659026299391,1,13.9200819672131,29.9
3.23333333333333,11.7625357633447,37.9062297236215,6.61432367064535,-0.00392576325593197,1,13.9200819672131,29.9
3.26666666666667,11.7615409863048,38.1266395165049,6.61039873399374,-0.00392493665161364,1,13.9200819672131,29.9
3.3,11.7605317771051,38.3469184249565,6.60647462355378,-0.00392411043996255,1,13.9200819672131,29.9
3.33333333333333,11.7595081602054,38.5670664755986,6.60255133893789,-0.0039232846158832,1,13.9200819672131,29.9
3.36666666666667,11.7584701590954,38.7870836950389,6.59862887975862,-0.00392245917927614,1,13.9200819672131,29.9
3.4,11.7574177966487,39.0069701098727,6.59470724562485,-0.00392163413377222,1,13.9200819672131,29.9
3.43333333333333,11.7563510955718,39.2267257466837,6.59078643613995,-0.00392080948489681,1,13.9200819672131,29.9
3.46666666666667,11.7552700788144,39.4463506320468,6.5868664509018,-0.00391998523814507,1,13.9200819672131,29.9
