Time,x_ego,y_ego,velocity,acceleration,action,x_ped,y_ped
0,11.8,15.9,7,0,1,15.5,29.9
0.0333333333333333,11.7999983534839,16.1332703793933,6.99615578086957,-0.00384421913043465,1,15.3694444444444,29.9
0.0666666666666667,11.7999880512244,16.366406598772,6.99196948588594,-0.00418629498362311,1,15.2444444444444,29.9
0.1,11.7999635172824,16.5994007549254,6.98769503770773,-0.00427444817820799,1,15.125,29.9
0.133333333333333,11.7999218602188,16.8322537837122,6.98349776040608,-0.00419727730165143,1,15.0111111111111,29.9
0.166666666666667,11.7998620716684,17.0649678755031,6.97935602410574,-0.00414173630034664,1,14.9027777777778,29.9
0.2,11.7997843082124,17.2975446075559,6.97525432455674,-0.00410169954899509,1,14.8,29.9
0.233333333333333,11.7996893412566,17.5299851178947,6.97118155184503,-0.0040727727117158,1,14.7027777777778,29.9
0.266666666666667,11.7995781930783,17.7622902299379,6.96712974705472,-0.00405180479030598,1,14.6111111111111,29.9
0.3,11.7994519327485,17.9944605417806,6.96309320923166,-0.00403653782305469,1,14.525,29.9
0.333333333333333,11.7993115841428,18.2264964901331,6.95906785460413,-0.00402535462753839,1,14.4444444444444,29.9
0.366666666666667,11.7991580959195,18.4583983961007,6.95505075743688,-0.00401709716724419,1,14.3694444444444,29.9
0.4,11.7989923337048,18.69016649796,6.95103982137006,-0.00401093606681968,1,14.3,29.9
0.433333333333333,11.7988150707562,18.921800974623,6.9470335442371,-0.00400627713296497,1,14.2361111111111,29.9
0.466666666666667,11.7986269691103,19.1533019624319,6.94303084971183,-0.00400269452526292,1,14.1777777777778,29.9
0.5,11.7984285547377,19.3846695671801,6.93903096669155,-0.00399988302028476,1,14.125,29.9
0.533333333333333,11.798220195881,19.6159038727167,6.93503334279368,-0.0039976238978694,1,14.0777777777778,29.9
0.566666666666667,11.7980020939076,19.8470049471111,6.93103758227398,-0.0039957605197003,1,14.0361111111111,29.9
0.6,11.7977742923163,20.0779728470769,6.92704340147401,-0.00399418079997282,1,14,29.9
0.633333333333333,11.7975367042054,20.3088076211551,6.92305059688358,-0.00399280459042384,1,13.9694444444444,29.9
0.666666666666667,11.7972891535619,20.5395093120111,6.91905902229244,-0.00399157459114097,1,13.9444444444444,29.9
0.7,11.7970314225696,20.7700779580986,6.91506857248291,-0.00399044980953445,1,13.925,29.9
0.733333333333333,11.7967632963499,21.0005135948664,6.91107917161346,-0.00398940086944677,1,13.9111111111111,29.9
0.766666666666667,11.7964845979495,21.2308162556314,6.90709076495046,-0.00398840666300515,1,13.9027777777778,29.9
0.8,11.7961952096167,21.4609856088888,6.90308151421473,-0.00400925073572189,1,13.9,29.9
0.833333333333333,11.7958951650767,21.6909348520398,6.89388508669628,-0.00919642751845196,1,13.9,29.9
0.866666666666667,11.7955847146774,21.9204333217082,6.87603614746518,-0.0178489392311008,1,13.9,29.9
0.9,11.7952642742326,22.1491639186539,6.84781384558312,-0.0282223018820567,3,13.9,29.9
0.933333333333333,11.7949343609049,22.3767808907972,6.80921982646711,-0.0385940191160135,3,13.9,29.9
0.966666666666667,11.7945955193935,22.6029672456414,6.76197799500565,-0.0472418314614593,3,13.9,29.9
1,11.7942482389634,22.8274925173953,6.70955604146372,-0.052421953541927,3,13.9,29.9
1.03333333333333,11.7938929721594,23.0501840544207,6.65195522783123,-0.057600813632499,3,13.9,29.9
1.06666666666667,11.7935301209298,23.270927013061,6.59264275586982,-0.0593124719614089,3,13.9,29.9
1.1,11.7931599495997,23.4897217510658,6.53506351387981,-0.0575792419900045,3,13.9,29.9
1.13333333333333,11.7927826884029,23.7065973400808,6.47749549065893,-0.0575680232208873,3,13.9,29.9
1.16666666666667,11.7923986082076,23.9215541559017,6.41993882224742,-0.0575566684115012,3,13.9,29.9
1.2,11.792007980614,24.1345925797905,6.36239356298801,-0.0575452592594159,3,13.9,29.9
1.23333333333333,11.7916110762965,24.3457129964466,6.30485972655147,-0.0575338364365381,3,13.9,29.9
1.26666666666667,11.7912081172012,24.5549444948768,6.24905942641649,-0.0558003001349761,3,13.9,29.9
1.3,11.7907992700216,24.7623452262295,6.19501426632407,-0.0540451600924277,3,13.9,29.9
1.33333333333333,11.79038468703,24.9679733341249,6.1427022381395,-0.0523120281845637,3,13.9,29.9
1.36666666666667,11.7899645041689,25.171886589819,6.09212313140819,-0.0505791067313117,3,13.9,29.9
1.4,11.7895388899875,25.3741140521433,6.0415546149595,-0.0505685164486867,3,13.9,29.9
1.43333333333333,11.7891079967123,25.5746851367859,5.99274056332158,-0.0488140516379216,3,13.9,29.9
1.46666666666667,11.7886719111257,25.773657953654,5.94565892918233,-0.047081634139249,3,13.9,29.9
1.5,11.7882306516382,25.9711193044353,5.90205332300519,-0.043605606177147,3,13.9,29.9
1.53333333333333,11.7877842220661,26.1671559754451,5.86017927156279,-0.0418740514424005,3,13.9,29.9
1.56666666666667,11.7873324964607,26.3619125064533,5.82524628961269,-0.0349329819500923,3,13.9,29.9
1.6,11.7868748641196,26.5557641207218,5.80588572310605,-0.0193605665066405,3,13.9,29.9
1.63333333333333,11.7864103721877,26.7492302241561,5.8021172453051,-0.00376847780095169,1,13.9,29.9
1.66666666666667,11.7859385408972,26.9425707364403,5.79835221453774,-0.0037650307673589,1,13.9,29.9
1.7,11.7854593870477,27.1357857578924,5.79458982127952,-0.00376239325821981,1,13.9,29.9
1.73333333333333,11.7849729028853,27.3288753673134,5.79082945847837,-0.00376036280115599,1,13.9,29.9
1.76666666666667,11.7844790642686,27.5218396280805,5.78707067217094,-0.00375878630743109,1,13.9,29.9
1.8,11.783977838559,27.7146785925187,5.78331313275087,-0.00375753942006529,1,13.9,29.9
1.83333333333333,11.7834691916822,27.9073923050377,5.77955661760551,-0.00375651514536202,1,13.8991319444444,29.9
1.86666666666667,11.7829530938667,28.0999808043833,5.77580099725341,-0.00375562035209764,1,13.8965277777778,29.9
1.9,11.7824295236869,28.292444125251,5.77204621954458,-0.00375477770883226,1,13.8921875,29.9
1.93333333333333,11.7818984702429,28.4847822994419,5.76829228957856,-0.0037539299660212,1,13.8861111111111,29.9
1.96666666666667,11.7813599335444,28.6769953566884,5.76453924603689,-0.00375304354166683,1,13.8782986111111,29.9
2,11.7808139233907,28.8690833252438,5.76078713687205,-0.00375210916483582,1,13.86875,29.9
2.03333333333333,11.7802604572042,29.0610462323004,5.75703599825553,-0.00375113861652832,1,13.8574652777778,29.9
2.06666666666667,11.7796995573534,29.2528841042875,5.75328584027353,-0.00375015798199385,1,13.8444444444444,29.9
2.1,11.7791312484778,29.4445969670817,5.74953664136972,-0.00374919890381253,1,13.8296875,29.9
2.13333333333333,11.7785555552245,29.6361848461569,5.74578835152616,-0.00374828984355613,1,13.8131944444444,29.9
2.16666666666667,11.7779725006517,29.8276477666917,5.7420409022708,-0.00374744925536241,1,13.7949652777778,29.9
2.2,11.77738210538,30.0189857536465,5.73829422030875,-0.00374668196205175,1,13.775,29.9
2.23333333333333,11.7767843874247,30.2101988318197,5.73454824116978,-0.00374597913897201,1,13.7532986111111,29.9
2.26666666666667,11.7761793625351,30.4012870258899,5.73080291974519,-0.00374532142458328,1,13.7298611111111,29.9
2.3,11.7755670448223,30.5922503604458,5.72705823572625,-0.0037446840189439,1,13.7046875,29.9
2.33333333333333,11.7749474474599,30.7830888600099,5.72331419339059,-0.00374404233565784,1,13.6777777777778,29.9
2.36666666666667,11.7743205832922,30.9738025490547,5.71957081653236,-0.00374337685822823,1,13.6491319444444,29.9
2.4,11.773686465253,31.1643914520145,5.71582814029331,-0.00374267623905933,1,13.61875,29.9
2.43333333333333,11.7730451065705,31.3548555932943,5.71208620206592,-0.003741938227388,1,13.5866319444444,29.9
2.46666666666667,11.7723965207876,31.5451949972751,5.70834503350053,-0.00374116856538453,1,13.5527777777778,29.9
2.5,11.7717407216643,31.7354096883176,5.70460465508078,-0.00374037841975561,1,13.5171875,29.9
2.53333333333333,11.7710777230369,31.925499690765,5.70086507393846,-0.00373958114231332,1,13.4798611111111,29.9
2.56666666666667,11.7704075386953,32.1154650289441,5.69712628477708,-0.00373878916138093,1,13.4407986111111,29.9
2.6,11.7697301823178,32.3053057271672,5.69338827314237,-0.00373801163471477,1,13.4,29.9
2.63333333333333,11.7690456674732,32.4950218097329,5.68965101992669,-0.0037372532156752,1,13.3574652777778,29.9
2.66666666666667,11.7683540076779,32.6846133009271,5.68591450594624,-0.0037365139804546,1,13.3131944444444,29.9
2.7,11.7676552164798,32.8740802250237,5.68217871563819,-0.0037357903080526,1,13.2671875,29.9
2.73333333333333,11.7669493075393,33.0634226062853,5.67844363929509,-0.00373507634309878,1,13.2194444444444,29.9
2.76666666666667,11.7662362946818,33.252640468964,5.67470927367332,-0.00373436562176366,1,13.1699652777778,29.9
2.8,11.7655161919098,33.4417338373012,5.67097562118234,-0.00373365249098612,1,13.11875,29.9
2.83333333333333,11.7647890133724,33.6307027355279,5.66724268811225,-0.00373293307008282,1,13.0657986111111,29.9
2.86666666666667,11.7640547733059,33.8195471878648,5.66351048246083,-0.00373220565142063,1,13.0111111111111,29.9
2.9,11.7633134859603,34.0082672185216,5.65977901188526,-0.00373147057557599,1,12.9546875,29.9
2.93333333333333,11.7625651655308,34.1968628516973,5.65604828216693,-0.00373072971832844,1,12.8965277777778,29.9
2.96666666666667,11.7618098261096,34.3853341115798,5.65231829638882,-0.00372998577810435,1,12.8366319444444,29.9
3,11.7610474816636,34.5736810223459,5.64858905483589,-0.00372924155293131,1,12.775,29.9
3.03333333333333,11.7602781460404,34.7619036081615,5.64486055547888,-0.00372849935701769,1,12.7116319444444,29.9
3.06666666666667,11.7595018329948,34.9500018931813,5.64113279481385,-0.00372776066502123,1,12.6465277777778,29.9
3.1,11.7587185562277,35.1379759015495,5.63740576880826,-0.00372702600559638,1,12.5796875,29.9
3.13333333333333,11.7579283294255,35.3258256573994,5.63367947373846,-0.00372629506979383,1,12.5111111111111,29.9
3.16666666666667,11.7571311662913,35.5135511848539,5.629953906775,-0.00372556696346216,1,12.4407986111111,29.9
3.2,11.7563270805644,35.7011525080255,5.62622906625549,-0.00372484051951094,1,12.36875,29.9
3.23333333333333,11.7555160860236,35.8886296510163,5.62250495166256,-0.00372411459292632,1,12.2949652777778,29.9
3.26666666666667,11.7546981964792,36.0759826379179,5.6187815633798,-0.00372338828276053,1,12.2194444444444,29.9
3.3,11.7538734257577,36.2632114928115,5.61505890232655,-0.00372266105325636,1,12.1421875,29.9
3.33333333333333,11.7530417876833,36.4503162397678,5.6113369695733,-0.00372193275325294,1,12.0631944444444,29.9
3.36666666666667,11.7522032960622,36.6372969028468,5.60761576601928,-0.00372120355401062,1,11.9824652777778,29.9
3.4,11.751357964673,36.824153506098,5.60389529218195,-0.00372047383733332,1,11.9,29.9
3.43333333333333,11.7505058072632,37.0108860735602,5.60017554811352,-0.00371974406843112,1,11.8157986111111,29.9
3.46666666666667,11.749646837552,37.1974946292617,5.59645653343078,-0.00371901468273528,1,11.7298611111111,29.9
3.5,11.7487810692372,37.3839791972198,5.59273824742466,-0.00371828600612378,1,11.6421875,29.9
3.53333333333333,11.7479085160031,37.5703398014419,5.58902068920823,-0.00371755821643394,1,11.5527777777778,29.9
3.56666666666667,11.7470291915285,37.7565764659242,5.58530385786424,-0.00371683134398371,1,11.4616319444444,29.9
3.6,11.7461431094907,37.942689214653,5.58158775256283,-0.00371610530141719,1,11.36875,29.9
3.63333333333333,11.7452502835676,38.1286780716038,5.57787237263313,-0.00371537992969539,1,11.2741319444444,29.9
3.66666666666667,11.7443507274361,38.3145430607415,5.57415771758606,-0.00371465504707214,1,11.1777777777778,29.9
3.7,11.7434444547683,38.500284206021,5.57044378709563,-0.0037139304904299,1,11.0796875,29.9
3.73333333333333,11.7425314792277,38.6859015313861,5.56673058095295,-0.00371320614268011,1,10.9798611111111,29.9
3.76666666666667,11.7416118144652,38.8713950607706,5.56301809900876,-0.00371248194418872,1,10.8782986111111,29.9
3.8,11.7406854741165,39.0567648180975,5.55930634111884,-0.00371175788991707,1,10.775,29.9
3.83333333333333,11.7397524718012,39.2420108272792,5.55559530710234,-0.00371103401650696,1,10.6699652777778,29.9
3.86666666666667,11.7388128211241,39.4271331122179,5.55188499671801,-0.0037103103843279,1,10.5631944444444,29.9
3.9,11.7378665356763,39.6121316968051,5.54817540965861,-0.00370958705940083,1,10.4546875,29.9
