Time,x_ego,y_ego,velocity,acceleration,action,x_ped,y_ped
0,11.8,8.9,5,0,1,15.5,29.9
0.0333333333333333,11.799996971979,9.06660768883879,4.99642262101937,-0.0035773789806326,1,15.3694444444444,29.9
0.0666666666666667,11.7999775463559,9.23309265297444,4.99264764779815,-0.00377497322121645,1,15.2444444444444,29.9
0.1,11.7999301712765,9.39944929560215,4.98873159822258,-0.0039160495755679,1,15.125,29.9
0.133333333333333,11.7998481911201,9.56567361840393,4.98471494073936,-0.00401665748322078,1,15.0111111111111,29.9
0.166666666666667,11.7997290000317,9.73176276802799,4.98062661697885,-0.0040883237605156,1,14.9027777777778,29.9
0.2,11.7995730029865,9.89771471177735,4.97648732304925,-0.004139293929601,1,14.8,29.9
0.233333333333333,11.7993826016313,10.0635280058241,4.97231187443512,-0.00417544861412633,1,14.7027777777778,29.9
0.266666666666667,11.7991613347271,10.2292016294068,4.9681108956513,-0.00420097878381664,1,14.6111111111111,29.9
0.3,11.7989132231236,10.3947348659711,4.96389201947314,-0.0042188761781583,1,14.525,29.9
0.333333333333333,11.7986423106582,10.5601272177215,4.9596607364369,-0.00423128303624409,1,14.4444444444444,29.9
0.366666666666667,11.7983523604676,10.7253783440313,4.95542099832468,-0.004239738112223,1,14.3694444444444,29.9
0.4,11.7980466586416,10.8904880169691,4.9511756492701,-0.00424534905457463,1,14.3,29.9
0.433333333333333,11.7977278866093,11.0554560891655,4.94692673537213,-0.004248913897972,1,14.2361111111111,29.9
0.466666666666667,11.7973980408288,11.2202824706158,4.94267572772992,-0.00425100764221487,1,14.1777777777778,29.9
0.5,11.7970583947633,11.3849671119736,4.93842368316704,-0.0042520445628762,1,14.125,29.9
0.533333333333333,11.7967095080971,11.5495099925721,4.93417135992485,-0.00425232324219227,1,14.0777777777778,29.9
0.566666666666667,11.7963512895547,11.7139111118954,4.92991930087739,-0.00425205904745241,1,14.0361111111111,29.9
0.6,11.7959831137211,11.8781704835665,4.92566789343017,-0.00425140744721997,1,14,29.9
0.633333333333333,11.7956039822949,12.0422881311667,4.92141741272076,-0.0042504807094117,1,13.9694444444444,29.9
0.666666666666667,11.7952127103647,12.2062640853778,4.91716805283791,-0.00424935988284858,1,13.9444444444444,29.9
0.7,11.794808112121,12.3700983820624,4.91291994942324,-0.0042481034146773,1,13.925,29.9
0.733333333333333,11.7943891599019,12.5337910609864,4.90867319610598,-0.00424675331726032,1,13.9111111111111,29.9
0.766666666666667,11.7939550957749,12.6973421649604,4.90442785658802,-0.00424533951795247,1,13.9027777777778,29.9
0.8,11.7935054844509,12.8607517392287,4.90018397368988,-0.00424388289814104,1,13.9,29.9
0.833333333333333,11.7930402076896,13.0240198309909,4.89594157621358,-0.00424239747630306,1,13.9,29.9
0.866666666666667,11.7925594107273,13.1871464889833,4.89170068409532,-0.00424089211826306,1,13.9,29.9
0.9,11.7920634184103,13.3501317630915,4.88746131207383,-0.00423937202148306,1,13.9,29.9
0.933333333333333,11.7915526414291,13.5129757039899,4.88322347202373,-0.00423784005010841,1,13.9,29.9
0.966666666666667,11.7910274913032,13.6756783628242,4.87898717415849,-0.00423629786523172,1,13.9,29.9
1,11.7904883175461,13.8382397909544,4.87475242740623,-0.00423474675226032,1,13.9,29.9
1.03333333333333,11.7899353734184,14.0006600397732,4.87051923931421,-0.00423318809202033,1,13.9,29.9
1.06666666666667,11.78936880964,14.1629391606021,4.86628761580861,-0.0042316235056008,1,13.9,29.9
1.1,11.7887886899169,14.3250772046568,4.86205756103787,-0.00423005477074057,1,13.9,29.9
1.13333333333333,11.7881950190634,14.4870742230627,4.85782907740801,-0.00422848362986716,1,13.9,29.9
1.16666666666667,11.7875877740782,14.6489302668976,4.8536021658166,-0.00422691159140953,1,13.9,29.9
1.2,11.7869669314004,14.8106450239176,4.84935502715388,-0.00424713866271276,1,13.9,29.9
1.23333333333333,11.7863325696351,14.9721894796847,4.84338735158255,-0.0059676755713296,1,13.9,29.9
1.26666666666667,11.7856849735583,15.1334772205278,4.83395549520014,-0.00943185638241584,1,13.9,29.9
1.3,11.7850247478588,15.294335015425,4.81759407666486,-0.0163614185352809,1,13.9,29.9
1.33333333333333,11.7843524615405,15.4546187341219,4.79951438435133,-0.0180796923135222,3,13.9,29.9
1.36666666666667,11.7836684521713,15.6142711154713,4.77971731356212,-0.0197970707892159,3,13.9,29.9
1.4,11.7829729906189,15.7732636291752,4.75992579718563,-0.0197915163764897,3,13.9,29.9
1.43333333333333,11.7822662659118,15.9315964684427,4.74014033695332,-0.0197854602323089,3,13.9,29.9
1.46666666666667,11.7815484727094,16.0892698406748,4.72036128798448,-0.0197790489688412,3,13.9,29.9
1.5,11.7808198071888,16.24628396337,4.70058889872063,-0.0197723892638484,3,13.9,29.9
1.53333333333333,11.7800807958494,16.4025525911623,4.67563520499572,-0.0249536937249086,3,13.9,29.9
1.56666666666667,11.7793319830083,16.5579894992106,4.6506892542372,-0.024945950758525,3,13.9,29.9
1.6,11.7785736020918,16.7125949527563,4.6257514427301,-0.0249378115071011,3,13.9,29.9
1.63333333333333,11.7778058970755,16.8663692284967,4.6008220497708,-0.0249293929592964,3,13.9,29.9
1.66666666666667,11.7770292380427,17.0192835456943,4.57415736039306,-0.0266646893777365,3,13.9,29.9
1.7,11.7762441218839,17.1712804322208,4.54577957750855,-0.0283777828845144,3,13.9,29.9
1.73333333333333,11.775450930127,17.3223314959837,4.51741128053508,-0.0283682969734729,3,13.9,29.9
1.76666666666667,11.7746499215333,17.4724370582256,4.48905271996464,-0.0283585605704353,3,13.9,29.9
1.8,11.7738413478181,17.6215974470982,4.46070407328684,-0.0283486466777978,3,13.9,29.9
1.83333333333333,11.7730254512328,17.7698129955478,4.43236546514003,-0.0283386081468162,3,13.8991319444444,29.9
1.86666666666667,11.7722024642689,17.9170840398056,4.4040369814493,-0.0283284836907276,3,13.8965277777778,29.9
1.9,11.7713727471888,18.0633822161456,4.37399656266966,-0.0300404187796355,3,13.8921875,29.9
1.93333333333333,11.7705366601502,18.2086791672488,4.34396661460212,-0.0300299480675408,3,13.8861111111111,29.9
1.96666666666667,11.7696944305021,18.3529752442487,4.31394726009273,-0.030019354509391,3,13.8782986111111,29.9
2,11.7688464336206,18.4962417363031,4.2821946630638,-0.0317525970289267,3,13.86875,29.9
2.03333333333333,11.7679930542261,18.6384499398968,4.25045304607422,-0.0317416169895823,3,13.8574652777778,29.9
2.06666666666667,11.7671345415986,18.7796002239411,4.21872254545228,-0.0317305006219408,3,13.8444444444444,29.9
2.1,11.7662711505153,18.9196929613026,4.18700325359255,-0.03171929185973,3,13.8296875,29.9
2.13333333333333,11.7654031382301,19.0587285275085,4.15529523208819,-0.0317080215043566,3,13.8131944444444,29.9
2.16666666666667,11.7645307614187,19.1967072998132,4.12359852078974,-0.031696711298455,3,13.7949652777778,29.9
2.2,11.7636542735928,19.3336296565264,4.09191314396295,-0.0316853768267924,3,13.775,29.9
2.23333333333333,11.7627739233286,19.4694959765314,4.06023911445874,-0.0316740295042086,3,13.7532986111111,29.9
2.26666666666667,11.7618899534475,19.6043066389411,4.02857643658136,-0.0316626778773808,3,13.7298611111111,29.9
2.3,11.7610026010873,19.7380620228555,3.99692510814127,-0.0316513284400899,3,13.7046875,29.9
2.33333333333333,11.7601122637657,19.8707338051198,3.96356299972588,-0.033362108415389,3,13.6777777777778,29.9
2.36666666666667,11.7592191733461,20.0023223690741,3.93193458843611,-0.0316284112897689,3,13.6491319444444,29.9
2.4,11.7583233946419,20.1328568002977,3.90031760029598,-0.0316169881401307,3,13.61875,29.9
2.43333333333333,11.7574251558427,20.2623374795733,3.86871198986082,-0.0316056104351636,3,13.5866319444444,29.9
2.46666666666667,11.7565248566527,20.3907360843004,3.83539559527793,-0.0333163945828869,3,13.5527777777778,29.9
2.5,11.7556229002458,20.5180242954068,3.8020907475485,-0.0333048477294273,3,13.5171875,29.9
2.53333333333333,11.7547195204436,20.6442025001091,3.76879752212863,-0.0332932254198721,3,13.4798611111111,29.9
2.56666666666667,11.7538149530443,20.7692710877179,3.73551596729378,-0.0332815548348484,3,13.4407986111111,29.9
2.6,11.7529094345398,20.8932304488559,3.70224611188075,-0.0332698554130277,3,13.4,29.9
2.63333333333333,11.7520033848698,21.0160522728969,3.6672658451085,-0.034980266772255,3,13.3574652777778,29.9
2.66666666666667,11.7510972278393,21.1377082541291,3.63229753348745,-0.0349683116210482,3,13.3131944444444,29.9
2.7,11.7501912073766,21.2581987940826,3.59734127883966,-0.0349562546477942,3,13.2671875,29.9
2.73333333333333,11.7492855687252,21.3775242971069,3.56239714778436,-0.0349441310552994,3,13.2194444444444,29.9
2.76666666666667,11.7483805569592,21.4956851693634,3.52746518172762,-0.0349319660567318,3,13.1699652777778,29.9
2.8,11.7474764155902,21.6126818181013,3.49254540402996,-0.0349197776976609,3,13.11875,29.9
2.83333333333333,11.7465733853356,21.7285146511357,3.45763782515043,-0.0349075788795319,3,13.0657986111111,29.9
2.86666666666667,11.7456717031055,21.8431840764737,3.42274244633726,-0.0348953788131716,3,13.0111111111111,29.9
2.9,11.7447716012654,21.9566905020444,3.38785926227031,-0.0348831840669495,3,12.9546875,29.9
2.93333333333333,11.743873307216,22.0690343355068,3.35298826294435,-0.0348709993259635,3,12.8965277777778,29.9
2.96666666666667,11.7429770433086,22.1802159841131,3.31812943500157,-0.0348588279427799,3,12.8366319444444,29.9
3,11.742083027082,22.2902358546126,3.28328276266688,-0.0348466723346879,3,12.775,29.9
3.03333333333333,11.7411914717712,22.3990943531854,3.2484482284014,-0.0348345342654826,3,12.7116319444444,29.9
3.06666666666667,11.7403025870024,22.5067918853973,3.21362581336183,-0.03482241503957,3,12.6465277777778,29.9
3.1,11.7394165795725,22.6133288561696,3.17881549773143,-0.0348103156303954,3,12.5796875,29.9
3.13333333333333,11.7385338690246,22.7186766045658,3.14227332918836,-0.0365421685430745,3,12.5111111111111,29.9
3.16666666666667,11.7376550926476,22.8227777714305,3.1040213098003,-0.0382520193880564,3,12.4407986111111,29.9
3.2,11.7367806838126,22.9256040714771,3.06578187709432,-0.0382394327059847,3,12.36875,29.9
3.23333333333333,11.7359108722767,23.0271559286403,3.02755518825324,-0.0382266888410761,3,12.2949652777778,29.9
3.26666666666667,11.7350461162428,23.1274047061039,2.98759741522724,-0.0399577730259986,3,12.2194444444444,29.9
3.3,11.7341871034878,23.2262930723682,2.94593064624216,-0.0416667689850767,3,12.1421875,29.9
3.33333333333333,11.7333345346321,23.3237640703239,2.90255524556277,-0.0433754006793903,3,12.0631944444444,29.9
3.36666666666667,11.7324889033021,23.4197894578913,2.85919376702704,-0.0433614785357359,3,11.9824652777778,29.9
3.4,11.7316504897833,23.5143697053917,2.81584645083018,-0.0433473161968547,3,11.9,29.9
3.43333333333333,11.7308195762911,23.607505289811,2.77251345891993,-0.0433329919102516,3,11.8157986111111,29.9
3.46666666666667,11.7299966729179,23.6991676274488,2.72745096014145,-0.045062498778484,3,11.7298611111111,29.9
3.5,11.7291822865779,23.7893281415302,2.68240317075673,-0.0450477893847214,3,11.6421875,29.9
3.53333333333333,11.7283766875807,23.8779873270685,2.63737023131688,-0.0450329394398512,3,11.5527777777778,29.9
3.56666666666667,11.7275801368892,23.9651456829372,2.59235223137964,-0.0450179999372327,3,11.4616319444444,29.9
3.6,11.7267931185493,24.0507750086244,2.54562708584283,-0.0467251455368132,3,11.36875,29.9
3.63333333333333,11.7260161090583,24.1348471089164,2.49891717174122,-0.0467099141016085,3,11.2741319444444,29.9
3.66666666666667,11.7252493445808,24.217362495875,2.45222260485266,-0.0466945668885601,3,11.1777777777778,29.9
3.7,11.7244932943319,24.2982929828581,2.40382131794544,-0.0484012869072163,3,11.0796875,29.9
3.73333333333333,11.723748426981,24.3776103889203,2.35543570004137,-0.0483856179040707,3,10.9798611111111,29.9
3.76666666666667,11.7230149722958,24.4553152406609,2.30706587587296,-0.0483698241684127,3,10.8782986111111,29.9
3.8,11.7222931568631,24.531408067944,2.2587119240479,-0.0483539518250633,3,10.775,29.9
3.83333333333333,11.7215831979151,24.6058899060451,2.21043494837837,-0.0482769756695318,3,10.6699652777778,29.9
3.86666666666667,11.7208852518249,24.6787681538475,2.16256388263584,-0.0478710657425303,3,10.5631944444444,29.9
3.9,11.7201993494395,24.7500638663141,2.11556958460124,-0.0469942980345963,3,10.4546875,29.9
3.93333333333333,11.7195251216439,24.8198431448212,2.07161790941254,-0.0439516751887004,3,10.3444444444444,29.9
3.96666666666667,11.7188618530115,24.8882098054585,2.03080937139878,-0.0408085380137635,3,10.2324652777778,29.9
4,11.7182090431618,24.9552394981399,1.99139239423197,-0.0394169771668069,3,10.11875,29.9
4.03333333333333,11.717566168689,25.0210069373918,1.95505660729312,-0.0363357869388501,3,10.0032986111111,29.9
4.06666666666667,11.7169327027923,25.0855837817265,1.91993046932407,-0.0351261379690517,3,9.88611111111111,29.9
4.1,11.7163081297473,25.1490369803036,1.88762052540391,-0.0323099439201568,3,9.7671875,29.9
4.13333333333333,11.7156916831641,25.2114588224794,1.85803106371934,-0.0295894616845738,3,9.64652777777778,29.9
4.16666666666667,11.7150825958397,25.2729385951119,1.83107843037562,-0.026952633343716,3,9.52413194444444,29.9
4.2,11.7144793307263,25.3336489531,1.81185136409763,-0.019227066277989,3,9.4,29.9
4.23333333333333,11.7138798303049,25.3938168860952,1.79851032111184,-0.0133410429857928,2,9.27413194444444,29.9
4.26666666666667,11.7132815090178,25.4537228088655,1.79610774327274,-0.00240257783910036,2,9.14652777777778,29.9
4.3,11.7126807220613,25.5137579267849,1.806237148775,0.0101294055022569,2,9.0171875,29.9
4.33333333333333,11.7120753529967,25.5741356343878,1.8166415798197,0.0104044310447036,2,8.88611111111111,29.9
4.36666666666667,11.711465091668,25.634862534637,1.82717414643204,0.0105325666123381,2,8.75329861111111,29.9
4.4,11.7108496283388,25.6959412823887,1.83774142967221,0.0105672832401711,2,8.61875,29.9
4.43333333333333,11.7102286681885,25.7573715786312,1.84825725062111,0.0105158209489031,2,8.48246527777778,29.9
4.46666666666667,11.7096019508438,25.8191505173868,1.85865521129432,0.0103979606732074,2,8.34444444444444,29.9
4.5,11.708969261259,25.8812735839115,1.86890582601383,0.0102506147195105,2,8.2046875,29.9
4.53333333333333,11.708330436085,25.9437356781668,1.87899784568745,0.0100920196736189,2,8.06319444444444,29.9
4.56666666666667,11.7076853724397,26.00653130073,1.88891635795589,0.00991851226844265,2,7.91996527777778,29.9
4.6,11.7070340342494,26.0696543821868,1.89864463347979,0.00972827552389521,2,7.775,29.9
4.63333333333333,11.7063764502744,26.133098402468,1.90817241805345,0.00952778457366077,2,7.62829861111111,29.9
4.66666666666667,11.7057127064803,26.1968565738329,1.91749404654835,0.00932162849490625,2,7.47986111111111,29.9
4.7,11.7050429347534,26.2609219789986,1.92660699148819,0.00911294493983528,2,7.3296875,29.9
4.73333333333333,11.7043673001514,26.325287569064,1.93550561135489,0.00889861986670248,2,7.17777777777778,29.9
4.76666666666667,11.7036859872392,26.3899461161723,1.94418625875177,0.00868064739687657,2,7.02413194444444,29.9
4.8,11.7029991844171,26.4548903845249,1.95265337232865,0.00846711357688634,2,6.86875,29.9
4.83333333333333,11.7023070679999,26.5201134619098,1.96092000728282,0.00826663495416269,2,6.71163194444444,29.9
4.86666666666667,11.7016097907075,26.5856088649882,1.96899769263851,0.00807768535568942,2,6.55277777777778,29.9
4.9,11.7009074757697,26.6513703663176,1.97688869367669,0.00789100103818408,2,6.3921875,29.9
4.93333333333333,11.7002002154684,26.7173917040881,1.98459088983117,0.00770219615448364,2,6.22986111111111,29.9
4.96666666666667,11.6994880700394,26.7836665960122,1.99210459414769,0.00751370431651588,2,6.06579861111111,29.9
5,11.6987710700961,26.8501886961754,1.99942436634055,0.00731977219285596,2,5.9,29.9
5.03333333333333,11.6980492225663,26.9169514414838,2.00654484647295,0.00712048013240318,2,5.9,29.9
5.06666666666667,11.697322515719,26.9839481717095,2.01346500044719,0.00692015397424361,2,5.9,29.9
5.1,11.69659092633,27.0511721336884,2.02017868332576,0.00671368287857277,2,5.9,29.9
5.13333333333333,11.6958544289038,27.1186163066783,2.02667863243492,0.0064999491091573,2,5.9,29.9
5.16666666666667,11.6951130015506,27.186273530287,2.03296374221807,0.00628510978314489,2,5.9,29.9
5.2,11.6943666305146,27.2541366749395,2.03903632085596,0.00607257863788968,2,5.9,29.9
5.23333333333333,11.6936153144968,27.3221986986111,2.04489946217231,0.00586314131635746,2,5.9,29.9
5.26666666666667,11.6928590674028,27.390452702443,2.05055874895265,0.00565928678033112,2,5.9,29.9
5.3,11.6920979191625,27.4588920099268,2.05602170778552,0.00546295883287495,2,5.9,29.9
5.33333333333333,11.6913319151869,27.5275102169152,2.06129695651541,0.00527524872989105,2,5.9,29.9
5.36666666666667,11.6905611145696,27.5963012175642,2.06639361669816,0.00509666018275334,2,5.9,29.9
5.4,11.689785587225,27.6652592137959,2.07132091631769,0.00492729961952509,2,5.9,29.9
5.43333333333333,11.6890054100213,27.7343787355843,2.0760911817663,0.00477026544860903,2,5.9,29.9
5.46666666666667,11.6882206568297,27.8036552008005,2.08075419744183,0.00466301567552829,2,5.9,29.9
5.5,11.6874313736312,27.8730868936363,2.08543508455763,0.0046808871158035,2,5.9,29.9
5.53333333333333,11.6866375457117,27.9426776788515,2.09034410170087,0.00490901714323533,2,5.9,29.9
5.56666666666667,11.6858390650468,28.0124396715236,2.09575735047992,0.00541324877905103,2,5.9,29.9
5.6,11.685035717206,28.0823940271584,2.10192299662023,0.00616564614030946,2,5.9,29.9
5.63333333333333,11.6842271985994,28.1525688760071,2.10901395997582,0.00709096335559112,2,5.9,29.9
5.66666666666667,11.6834131295562,28.2229977618256,2.11719930423515,0.00818534425933315,2,5.9,29.9
5.7,11.6825930468596,28.2937201481954,2.1266527648279,0.00945346059274588,2,5.9,29.9
5.73333333333333,11.6817664100094,28.3647807245748,2.1375213180275,0.0108685531996073,2,5.9,29.9
5.76666666666667,11.6809326022109,28.4362293063412,2.14995288517658,0.012431567149072,2,5.9,29.9
5.8,11.6800909476009,28.5081192954977,2.16402033448939,0.0140674493128174,2,5.9,29.9
5.83333333333333,11.6792407266827,28.5805063872079,2.17979611706735,0.0157757825779568,2,5.9,29.9
5.86666666666667,11.6783811757075,28.6534488264531,2.19735769560237,0.017561578535024,2,5.9,29.9
5.9,11.6775114904349,28.7270072674537,2.21677072693878,0.0194130313364034,4,5.9,29.9
5.93333333333333,11.6766308321866,28.8012444076362,2.23809440176809,0.0213236748293144,4,5.9,29.9
5.96666666666667,11.6757383314584,28.8762248154142,2.26137919538338,0.0232847936152831,4,5.9,29.9
6,11.6748330928734,28.9520145877539,2.28667104556424,0.0252918501808646,4,5.9,29.9
6.03333333333333,11.6739141923286,29.028681665002,2.31403737279117,0.0273663272269329,4,5.9,29.9
6.06666666666667,11.6729806666751,29.1062967538465,2.34357896350915,0.0295415907179812,4,5.9,29.9
6.1,11.67203149694,29.1849347491666,2.37544935556738,0.0318703920582291,4,5.9,29.9
6.13333333333333,11.6710655827606,29.2646768479271,2.40988347841085,0.0344341228434679,4,5.9,29.9
6.16666666666667,11.6700816932829,29.3456146513706,2.4472834264562,0.0373999480453446,4,5.9,29.9
6.2,11.6690783917931,29.4278564382833,2.4882435001997,0.0409600737435074,4,5.9,29.9
6.23333333333333,11.6680539672699,29.5115325947819,2.53347444121526,0.0452309410155527,4,5.9,29.9
6.26666666666667,11.6670064199908,29.5967964212056,2.58359319098918,0.0501187497739286,4,5.9,29.9
6.3,11.6659335415075,29.6838168500707,2.63890381406337,0.0553106230741891,4,5.9,29.9
6.33333333333333,11.6648330292996,29.7727675563295,2.69939825130143,0.0604944372380536,4,5.9,29.9
6.36666666666667,11.6637025830851,29.8638178010948,2.76483239269743,0.0654341413960045,4,5.9,29.9
6.4,11.6625399767848,29.9571257821693,2.83479776150115,0.0699653688037198,4,5.9,29.9
6.43333333333333,11.6613431098298,30.0528342186684,2.90878352703195,0.0739857655308009,4,5.9,29.9
6.46666666666667,11.6601100416644,30.1510678147973,2.9862263015967,0.0774427745647444,4,5.9,29.9
6.5,11.6588390152342,30.2519320211669,3.06653864820389,0.0803123466071924,4,5.9,29.9
6.53333333333333,11.6575284702884,30.3555128969254,3.14915242166717,0.0826137734632839,4,5.9,29.9
6.56666666666667,11.656177042041,30.4618783025421,3.23354557210877,0.0843931504415978,4,5.9,29.9
6.6,11.654783553322,30.5710795745266,3.31924882849504,0.0857032563862687,4,5.9,29.9
