Time,x_ego,y_ego,velocity,acceleration,action,x_ped,y_ped
0,11.8,8.9,5,0,1,15.5,29.9
0.0333333333333333,11.7999975899412,9.06660768883992,4.99642261859086,-0.00357738140914421,1,15.4972222222222,29.9
0.0666666666666667,11.7999809245262,9.23309265301297,4.99264763411701,-0.00377498447384905,1,15.4888888888889,29.9
0.1,11.7999342889191,9.39944929574827,4.98873163605389,-0.00391599806311493,1,15.475,29.9
0.133333333333333,11.7998406582805,9.56567361773027,4.98471533122674,-0.00401630482715021,1,15.4555555555556,29.9
0.166666666666667,11.7996814838055,9.73176276044518,4.98062802495852,-0.00408730626822607,1,15.4305555555556,29.9
0.2,11.7994399535032,9.89771467723861,4.97649073156474,-0.00413729339377955,1,15.4,29.9
0.233333333333333,11.799103210488,10.0635278975781,4.97231827014016,-0.00417246142457994,1,15.3666666666667,29.9
0.266666666666667,11.7986663903412,10.2292013622508,4.96812083807959,-0.00419743206056555,1,15.3333333333333,29.9
0.3,11.7981346312469,10.3947343129012,4.96390485783625,-0.00421598024333569,1,15.3,29.9
0.333333333333333,11.7975286132537,10.5601262277619,4.95967473640629,-0.00423012142996892,1,15.2666666666667,29.9
0.366666666666667,11.7968724870179,10.7253767672047,4.95543443567155,-0.00424030073473602,1,15.2333333333333,29.9
0.4,11.7961895418941,10.8904857289468,4.95118710176619,-0.00424733390535881,1,15.2,29.9
0.433333333333333,11.795502271375,11.0554530133642,4.94693535269062,-0.00425174907557579,1,15.1666666666667,29.9
0.466666666666667,11.7948293365272,11.2202785879382,4.94268134200954,-0.00425401068107956,1,15.1333333333333,29.9
0.5,11.7941849083275,11.3849624594756,4.93842661491993,-0.0042547270896085,1,15.1,29.9
0.533333333333333,11.7935782942789,11.549504653036,4.93417225043475,-0.00425436448518113,1,15.0666666666667,29.9
0.566666666666667,11.7930124354555,11.7139051942659,4.92991887500527,-0.00425337542947979,1,15.0333333333333,29.9
0.6,11.7924848560801,11.8781641033823,4.92566674349369,-0.00425213151157955,1,15,29.9
0.633333333333333,11.7919892544467,12.0422813956944,4.92141592565256,-0.00425081784112979,1,14.9666666666667,29.9
0.666666666666667,11.7915169715578,12.2062570843797,4.9171664312324,-0.00424949442016143,1,14.9333333333333,29.9
0.7,11.7910582893632,12.3700911835432,4.91291827420298,-0.00424815702941483,1,14.9,29.9
0.733333333333333,11.7906041432689,12.5337837122331,4.9086714856145,-0.0042467885884836,1,14.8666666666667,29.9
0.766666666666667,11.7901484869675,12.6973346999656,4.90442611386865,-0.00424537174584216,1,14.8333333333333,29.9
0.8,11.7896865144186,12.8607441813003,4.90018220893435,-0.00424390493430327,1,14.8,29.9
0.833333333333333,11.7892150177076,13.0240121962217,4.89593979940681,-0.00424240952753774,1,14.7666666666667,29.9
0.866666666666667,11.7887340915252,13.1871387945018,4.89169889931239,-0.00424090009442857,1,14.7333333333333,29.9
0.9,11.7882449244683,13.3501240297183,4.88745952367234,-0.00423937564004717,1,14.7,29.9
0.933333333333333,11.7877496983596,13.5129679589214,4.88322166968852,-0.00423785398381948,1,14.6666666666667,29.9
0.966666666666667,11.7872529187361,13.6756706463397,4.87898534062178,-0.00423632906674332,1,14.6333333333333,29.9
1,11.7867587840574,13.838232155948,4.87475055849494,-0.00423478212683914,1,14.6,29.9
1.03333333333333,11.7862703262979,14.0006525487445,4.87051734216155,-0.00423321633338869,1,14.5666666666667,29.9
1.06666666666667,11.7857893593988,14.1629318823462,4.86628570338542,-0.00423163877612254,1,14.5333333333333,29.9
1.1,11.7853165405095,14.325070211028,4.86205564626667,-0.00423005711875657,1,14.5,29.9
1.13333333333333,11.784851529658,14.4870675861449,4.85782716903288,-0.00422847723379238,1,14.4666666666667,29.9
1.16666666666667,11.7843932251731,14.6489240568279,4.85360026694235,-0.00422690209052146,1,14.4333333333333,29.9
1.2,11.7839400437126,14.8106396708215,4.84937493507774,-0.00422533186461838,1,14.4,29.9
1.23333333333333,11.783490208488,14.9722144753321,4.84515117014902,-0.00422376492871646,1,14.3666666666667,29.9
1.26666666666667,11.7830420095,15.1336485177768,4.8409289709868,-0.00422219916221689,1,14.3333333333333,29.9
1.3,11.7825940059123,15.2949418463502,4.83670833797716,-0.00422063300964126,1,14.3,29.9
1.33333333333333,11.7821451519466,15.4560945103673,4.83248927203534,-0.00421906594182264,1,14.2666666666667,29.9
1.36666666666667,11.7816948414799,15.6171065603746,4.82827177372203,-0.00421749831331208,1,14.2333333333333,29.9
1.4,11.7812430443399,15.7779199167932,4.82056802072964,-0.00770375299238246,1,14.2,29.9
1.43333333333333,11.7807902219885,15.9384191068362,4.8094221474374,-0.011145873292242,1,14.1666666666667,29.9
1.46666666666667,11.7803371349705,16.0984599775126,4.79306918630056,-0.016352961136838,1,14.1333333333333,29.9
1.5,11.7798848097196,16.2578406408429,4.76980998734607,-0.0232591989544941,3,14.1,29.9
1.53333333333333,11.7794342750629,16.4163596197535,4.74136830313182,-0.0284416842142532,3,14.0666666666667,29.9
1.56666666666667,11.7789861673889,16.5739306633839,4.71293390509024,-0.0284343980415764,3,14.0333333333333,29.9
1.6,11.7785407747267,16.7305540308662,4.68450770972932,-0.0284261953609226,3,14,29.9
1.63333333333333,11.7780984379931,16.8861722387084,4.65262434110969,-0.0318833686196287,3,13.9666666666667,29.9
1.66666666666667,11.7776594841318,17.0406991293135,4.61902869490105,-0.033595646208644,3,13.9333333333333,29.9
1.7,11.7772239271342,17.1941350441586,4.58716578361075,-0.0318629112902942,3,13.9,29.9
1.73333333333333,11.7767916609579,17.3465090423691,4.55531369367973,-0.0318520899310215,3,13.8666666666667,29.9
1.76666666666667,11.7763626464196,17.4978214888331,4.52347263563818,-0.0318410580415485,3,13.8333333333333,29.9
1.8,11.7759368450853,17.6480727550122,4.49164275105879,-0.0318298845793903,3,13.8,29.9
1.83333333333333,11.7755142250062,17.7972632169145,4.45982413930249,-0.0318186117562975,3,13.7666666666667,29.9
1.86666666666667,11.7750945954738,17.9454510216802,4.43148290538079,-0.0283412339216991,3,13.7333333333333,29.9
1.9,11.7746777655695,18.0926943084713,4.40315256390356,-0.0283303414772371,3,13.7,29.9
1.93333333333333,11.7742637026662,18.2389934388468,4.37483296193255,-0.0283196019710052,3,13.6666666666667,29.9
1.96666666666667,11.7738523662791,18.3843487691348,4.34652399902013,-0.0283089629124191,3,13.6333333333333,29.9
2,11.7734437096086,18.5287606517649,4.31822560504783,-0.0282983939722978,3,13.6,29.9
2.03333333333333,11.7730376846532,18.6722294362356,4.28993772313954,-0.0282878819082937,3,13.5666666666667,29.9
2.06666666666667,11.7726342492917,18.8147554698164,4.26166029860914,-0.0282774245303985,3,13.5333333333333,29.9
2.1,11.7722333741885,18.9563390980574,4.23339327403903,-0.0282670245701091,3,13.5,29.9
2.13333333333333,11.7718350475204,19.0969806651535,4.2051365895454,-0.0282566844936341,3,13.4666666666667,29.9
2.16666666666667,11.771439276231,19.2366805141999,4.17689018646546,-0.0282464030799368,3,13.4333333333333,29.9
2.2,11.7710460835186,19.3754389873653,4.14865401234576,-0.0282361741197024,3,13.4,29.9
2.23333333333333,11.7706555032483,19.5132564260062,4.12042802527803,-0.0282259870677306,3,13.3666666666667,29.9
2.26666666666667,11.7702675726944,19.6501331707389,4.09221219621703,-0.0282158290609953,3,13.3333333333333,29.9
2.3,11.769882325313,19.7860695614865,4.06400650871832,-0.0282056874987129,3,13.3,29.9
2.33333333333333,11.7694997850874,19.9210659375106,4.03581095632338,-0.0281955523949424,3,13.2666666666667,29.9
2.36666666666667,11.7691200447819,20.0550939350114,4.00590341499315,-0.0299075413302248,3,13.2333333333333,29.9
2.4,11.7687432668374,20.1880961285529,3.97426232886483,-0.0316410861283254,3,13.2,29.9
2.43333333333333,11.7683695221534,20.3200438045541,3.9426319702645,-0.0316303586003301,3,13.1666666666667,29.9
2.46666666666667,11.7679988744638,20.4509086204391,3.90929039155542,-0.0333415787090754,3,13.1333333333333,29.9
2.5,11.7676314672784,20.5806335404036,3.87423795203895,-0.0350524395164777,3,13.1,29.9
2.53333333333333,11.7672673652958,20.7091902440394,3.83919719590728,-0.0350407561316626,3,13.0666666666667,29.9
2.56666666666667,11.7669065570881,20.836579123578,3.80416834312503,-0.0350288527822529,3,13.0333333333333,29.9
2.6,11.766549037385,20.9628005775838,3.76915153705539,-0.0350168060696423,3,13,29.9
2.63333333333333,11.7661948064325,21.0878550089505,3.73414686736636,-0.0350046696890254,3,12.9666666666667,29.9
2.66666666666667,11.7658438681945,21.2117428234622,3.69915438796209,-0.0349924794042731,3,12.9333333333333,29.9
2.7,11.7654962280513,21.334464428759,3.66417413059523,-0.0349802573668607,3,12.9,29.9
2.73333333333333,11.7651518906554,21.4560202335945,3.6292061144982,-0.0349680160970252,3,12.8666666666667,29.9
2.76666666666667,11.7648109407851,21.5763815814982,3.5925064269983,-0.0366996874999002,3,12.8333333333333,29.9
2.8,11.7644734604404,21.6955198207495,3.55581924123258,-0.0366871857657243,3,12.8,29.9
2.83333333333333,11.7641394468485,21.8134353705535,3.51914466744107,-0.0366745737915068,3,12.7666666666667,29.9
2.86666666666667,11.7638088957904,21.9301286528334,3.48248278102106,-0.0366618864200086,3,12.7333333333333,29.9
2.9,11.7634818841673,22.0455713887286,3.44411150166016,-0.038371279360907,3,12.7,29.9
2.93333333333333,11.763158489822,22.1597353047923,3.40575321600464,-0.0383582856555194,3,12.6666666666667,29.9
2.96666666666667,11.7628387109453,22.2726208356544,3.3674080378906,-0.0383451781140378,3,12.6333333333333,29.9
3,11.7625225475301,22.3842284190085,3.32907603869347,-0.0383319991971258,3,12.6,29.9
3.03333333333333,11.7622100833063,22.4945294286468,3.28901332880384,-0.0400627098896291,3,12.5666666666667,29.9
3.06666666666667,11.7619014026146,22.6034952438808,3.24896408694759,-0.0400492418562597,3,12.5333333333333,29.9
3.1,11.7615965884696,22.7110976130001,3.20720629093743,-0.0417577960101601,3,12.5,29.9
3.13333333333333,11.7612958041146,22.8172795891523,3.16374023431468,-0.0434660566227443,3,12.4666666666667,29.9
3.16666666666667,11.7609991299504,22.9220129392479,3.12028842018895,-0.0434518141257318,3,12.4333333333333,29.9
3.2,11.7607068907895,23.0251826049344,3.06991891530894,-0.0503695048800075,3,12.4,29.9
3.23333333333333,11.760419410203,23.1266735503005,3.01956487926039,-0.0503540360485544,3,12.3666666666667,29.9
3.26666666666667,11.7601367651662,23.2264575973721,2.9675046885212,-0.0520601907391889,3,12.3333333333333,29.9
3.3,11.7598590327566,23.3245065863882,2.91546105360609,-0.0520436349151074,3,12.3,29.9
3.33333333333333,11.7595862094689,23.4208210747669,2.86343432159289,-0.0520267320131982,3,12.2666666666667,29.9
3.36666666666667,11.7593182929066,23.5154016293751,2.81142472390836,-0.0520095976845365,3,12.2333333333333,29.9
3.4,11.7590552818547,23.6082488234191,2.75943240660739,-0.0519923173009653,3,12.2,29.9
3.43333333333333,11.7587971760569,23.6993632342161,2.70745745422492,-0.051974952382472,3,12.1666666666667,29.9
3.46666666666667,11.7585439757839,23.7887454415965,2.65549990909001,-0.0519575451349081,3,12.1333333333333,29.9
3.5,11.75829568132,23.8763960267586,2.60355978673458,-0.0519401223554268,3,12.1,29.9
3.53333333333333,11.7580522925044,23.9623155714485,2.55163708741617,-0.0519226993184181,3,12.0666666666667,29.9
3.56666666666667,11.7578139720749,24.0464468887731,2.49626572457704,-0.0553713628391272,3,12.0333333333333,29.9
3.6,11.757581044539,24.1286753938714,2.437467902396,-0.0587978221810399,3,12,29.9
3.63333333333333,11.7573539973199,24.2088287497559,2.37175633881864,-0.065711563577358,3,11.9666666666667,29.9
3.66666666666667,11.7571334810261,24.286676880439,2.29915397715671,-0.0726023616619265,3,11.9333333333333,29.9
3.7,11.7569199823194,24.3620475786554,2.22311927248546,-0.0760347046712528,3,11.9,29.9
3.73333333333333,11.7567137315284,24.4348592219748,2.14571480266872,-0.077404469816738,3,11.8666666666667,29.9
3.76666666666667,11.7565148212103,24.505078976912,2.06776077503544,-0.0779540276332873,3,11.8333333333333,29.9
3.8,11.7563231879921,24.5727292200327,1.99158751279848,-0.076173262236958,3,11.8,29.9
3.83333333333333,11.7561386546317,24.6378726603404,1.91735871814663,-0.0742287946518492,3,11.7666666666667,29.9
3.86666666666667,11.7559610392242,24.7005737332364,1.84503267504747,-0.0723260430991552,3,11.7333333333333,29.9
3.9,11.7557901663058,24.760894618903,1.77453267126215,-0.0705000037853227,3,11.7,29.9
3.93333333333333,11.7556258693832,24.8188942947836,1.70573511359413,-0.0687975576680178,3,11.6666666666667,29.9
3.96666666666667,11.7554679941528,24.8746273613443,1.63852023144214,-0.0672148821519978,3,11.6333333333333,29.9
4,11.755316394882,24.9281453031343,1.57281891527105,-0.065701316171084,3,11.6,29.9
4.03333333333333,11.7551709307853,24.9794977713584,1.50857986087294,-0.064239054398108,3,11.5666666666667,29.9
4.06666666666667,11.7550313845439,25.0287613676203,1.4474741361337,-0.0611057247392459,3,11.5333333333333,29.9
4.1,11.7548976274274,25.0759813801792,1.38595721055992,-0.0615169255737813,3,11.5,29.9
4.13333333333333,11.7547695346765,25.1212016865779,1.32748651139898,-0.0584706991609345,3,11.4666666666667,29.9
4.16666666666667,11.7546469848024,25.1644650282637,1.26852963419904,-0.0589568771999429,3,11.4333333333333,29.9
4.2,11.7545298612529,25.205812442892,1.21252358477631,-0.0560060494227264,3,11.4,29.9
4.23333333333333,11.7544180518735,25.2452834663287,1.1559419182221,-0.0565816665542089,3,11.3666666666667,29.9
4.26666666666667,11.7543114474299,25.2829166566597,1.10225266256914,-0.0536892556529636,3,11.3333333333333,29.9
4.3,11.7542098569666,25.3187794693737,1.04972675359893,-0.0525259089702088,3,11.3,29.9
4.33333333333333,11.7541130877343,25.3529400307381,1.00012304429346,-0.0496037093054722,3,11.2666666666667,29.9
4.36666666666667,11.7540208631655,25.3854960806788,0.953457247003786,-0.0466657972896727,3,11.2333333333333,29.9
4.4,11.7539329053288,25.4165458506451,0.909743719968459,-0.0437135270353275,3,11.2,29.9
4.43333333333333,11.7538489379672,25.4461869778329,0.868928235770629,-0.0408154841978301,3,11.1666666666667,29.9
4.46666666666667,11.7537686095866,25.4745436457883,0.832655593034773,-0.036272642735856,3,11.1333333333333,29.9
4.5,11.7536916605154,25.5017076011791,0.797348161151886,-0.0353074318828871,3,11.1,29.9
4.53333333333333,11.753617922769,25.5277381967211,0.764639752751682,-0.0327084084002033,3,11.0666666666667,29.9
4.56666666666667,11.7535472358775,25.5526921039653,0.732735001469033,-0.0319047512826489,3,11.0333333333333,29.9
4.6,11.7534793632037,25.5766528558858,0.705039429777404,-0.0276955716916295,3,11,29.9
4.63333333333333,11.7534140736996,25.5997019880164,0.678027726313321,-0.0270117034640833,3,10.9666666666667,29.9
4.66666666666667,11.7533513048732,25.6218615122467,0.651658449285691,-0.0263692770276291,3,10.9333333333333,29.9
4.7,11.7532909963688,25.6431526720488,0.625925065175507,-0.0257333841101844,3,10.9,29.9
4.73333333333333,11.7532330880191,25.6635966361514,0.600825249858463,-0.0250998153170437,3,10.8666666666667,29.9
4.76666666666667,11.7531775200541,25.6832144304641,0.576352954142827,-0.0244722957156361,3,10.8333333333333,29.9
4.8,11.7531241521581,25.7020555179383,0.554219548612544,-0.022133405530283,3,10.8,29.9
4.83333333333333,11.7530728455147,25.7201688391124,0.532682881761071,-0.0215366668514736,3,10.7666666666667,29.9
4.86666666666667,11.7530235445987,25.7375739413292,0.511722708918904,-0.0209601728421661,3,10.7333333333333,29.9
4.9,11.7529761957457,25.7542897274985,0.491320536788663,-0.0204021721302417,3,10.7,29.9
4.93333333333333,11.7529307470086,25.770334508029,0.471459254732793,-0.0198612820558698,3,10.6666666666667,29.9
4.96666666666667,11.7528871480411,25.7857260421397,0.452122860722066,-0.0193363940107273,3,10.6333333333333,29.9
5,11.7528453500703,25.8004815468847,0.433293338647655,-0.0188295220744106,3,10.6,29.9
5.03333333333333,11.7528053065419,25.8146174681531,0.414942881588189,-0.0183504570594664,3,10.5666666666667,29.9
5.06666666666667,11.7527669735519,25.8281493264602,0.397045463022719,-0.01789741856547,5,10.5333333333333,29.9
5.1,11.7527303094605,25.8410918510903,0.379579417185927,-0.0174660458367915,5,10.5,29.9
5.13333333333333,11.7526952745278,25.8534591065285,0.362526355568871,-0.0170530616170563,5,10.4666666666667,29.9
5.16666666666667,11.7526618306374,25.8652645877256,0.345870369723881,-0.0166559858449897,5,10.4333333333333,29.9
5.2,11.7526299410857,25.8765212924352,0.329597443799413,-0.0162729259244678,5,10.4,29.9
5.23333333333333,11.7525995707171,25.8872417766424,0.313695020876367,-0.0159024229230467,5,10.3666666666667,29.9
5.26666666666667,11.7525706866215,25.8974381975015,0.298151682052088,-0.0155433388242786,5,10.3333333333333,29.9
5.3,11.7525432570175,25.9071223470244,0.282956908188371,-0.0151947738637173,5,10.3,29.9
5.33333333333333,11.7525172508558,25.9163056789088,0.268100902330563,-0.0148560058578079,5,10.2666666666667,29.9
5.36666666666667,11.7524926377586,25.9249993302598,0.253574456760592,-0.0145264455699706,5,10.2333333333333,29.9
5.4,11.7524693879739,25.9332141394923,0.239368853010419,-0.0142056037501729,5,10.2,29.9
5.43333333333333,11.7524474723428,25.9409606613626,0.22547578633608,-0.0138930666743397,5,10.1666666666667,29.9
5.46666666666667,11.7524268620554,25.9482492573918,0.211896094412951,-0.0135796919231292,5,10.1333333333333,29.9
5.5,11.7524075266714,25.9550908001658,0.198657455909388,-0.0132386385035624,5,10.1,29.9
5.53333333333333,11.7523894329927,25.9614970773007,0.185783128101547,-0.0128743278078411,5,10.0666666666667,29.9
5.56666666666667,11.7523725459683,25.9674804782551,0.173286472189254,-0.012496655912293,5,10.0333333333333,29.9
5.6,11.7523568295148,25.973053711465,0.161173638052948,-0.0121128341363065,5,10,29.9
5.63333333333333,11.7523421648553,25.9782586410943,0.151186698678297,-0.00998693937465098,5,9.96666666666667,29.9
5.66666666666667,11.7523282715123,25.9831941884882,0.145005060423353,-0.00618163825494392,5,9.93333333333333,29.9
5.7,11.7523147096325,25.9880155205521,0.14432273468839,-0.000682325734962491,5,9.9,29.9
5.73333333333333,11.7523007998131,25.9929623638641,0.152517065222033,0.00819433053364302,5,9.86666666666667,29.9
5.76666666666667,11.7522854650619,25.9984148119714,0.174628748260189,0.0221116830381557,4,9.83333333333334,29.9
5.8,11.7522670751288,26.0049482996164,0.217332450623079,0.0427037023628905,4,9.8,29.9
5.83333333333333,11.7522445151203,26.0129563081094,0.263060071470458,0.0457276208473782,4,9.76666666666667,29.9
5.86666666666667,11.7522176730312,26.0224782308116,0.308155847537657,0.0450957760671996,4,9.73333333333333,29.9
5.9,11.7521866124982,26.0334914702279,0.352535049385819,0.0443792018481619,4,9.7,29.9
5.93333333333333,11.7521514113217,26.0459710738926,0.396138879739298,0.0436038303534787,4,9.66666666666667,29.9
5.96666666666667,11.7521121845671,26.0598904862384,0.438927568251041,0.0427886885117433,4,9.63333333333333,29.9
6,11.7520690661054,26.075222093877,0.48087357835612,0.0419460101050793,4,9.6,29.9
6.03333333333333,11.7520222011879,26.0919372467028,0.521937333914531,0.041063755558411,4,9.56666666666667,29.9
6.06666666666667,11.7519717459055,26.1100059750109,0.56208418252788,0.0401468486133491,4,9.53333333333333,29.9
6.1,11.7519178640144,26.129397444937,0.601295993414007,0.0392118108861268,4,9.5,29.9
6.13333333333333,11.7518607232766,26.1500804164944,0.639566679086973,0.038270685672966,4,9.46666666666667,29.9
6.16666666666667,11.7518004917826,26.1720235745394,0.676898787080854,0.0373321079938808,4,9.43333333333333,29.9
6.2,11.7517373340617,26.19519584827,0.713310632960833,0.0364118458799795,4,9.4,29.9
6.23333333333333,11.751671405151,26.2195674213198,0.748858765136495,0.0355481321756619,4,9.36666666666667,29.9
6.26666666666667,11.7516028456903,26.2451104119188,0.783598303020828,0.0347395378843331,4,9.33333333333333,29.9
6.3,11.7515317800319,26.2717985822347,0.817573800204138,0.0339754971833094,4,9.3,29.9
6.33333333333333,11.7514583147921,26.2996070431864,0.850821860054997,0.0332480598508589,4,9.26666666666667,29.9
6.36666666666667,11.7513825377694,26.3285120336223,0.883373131339249,0.0325512712842526,4,9.23333333333333,29.9
6.4,11.7513045174171,26.3584907489994,0.915252763393197,0.0318796320539479,4,9.2,29.9
