Time,x_ego,y_ego,velocity,acceleration,action,x_ped,y_ped
0,11.8,15.9,7,0,1,15.5,29.9
0.0333333333333333,11.8000058261184,16.1332703793818,6.99615579630203,-0.0038442036979669,1,15.3694444444444,29.9
0.0666666666666667,11.8000447697007,16.3664065982567,6.99196970701716,-0.00418608928486908,1,15.2444444444444,29.9
0.1,11.8001496476809,16.5994007492951,6.9876960576491,-0.00427364936806374,1,15.125,29.9
0.133333333333333,11.8003505181976,16.832253753364,6.98350052117969,-0.00419553646941484,1,15.0111111111111,29.9
0.166666666666667,11.8006671630661,17.0649677681382,6.97936136978292,-0.00413915139676924,1,14.9027777777778,29.9
0.2,11.8011076415381,17.2975443204825,6.97526262372131,-0.00409874606160709,1,14.8,29.9
0.233333333333333,11.8016719215494,17.5299844871045,6.97119266056421,-0.00406996315710373,1,14.7027777777778,29.9
0.266666666666667,11.8023554726928,17.7622890283359,6.96714318047016,-0.00404948009404915,1,14.6111111111111,29.9
0.3,11.8031500801122,17.9944584875663,6.96310807036886,-0.00403511010130053,1,14.525,29.9
0.333333333333333,11.8040415929334,18.2264932692768,6.95908315980687,-0.0040249105619905,1,14.4444444444444,29.9
0.366666666666667,11.8050174204257,18.4583936802122,6.95506587986911,-0.00401727993775669,1,14.3694444444444,29.9
0.4,11.8060680975872,18.6901599551512,6.9510544390596,-0.00401144080950999,1,14.3,29.9
0.433333333333333,11.8071866283417,18.9217922752532,6.9470475374233,-0.00400690163629402,1,14.2361111111111,29.9
0.466666666666667,11.808367880274,19.1532907808954,6.94304420806827,-0.00400332935503478,1,14.1777777777778,29.9
0.5,11.8096081710477,19.3846555808905,6.939043727917,-0.00400048015126764,1,14.125,29.9
0.533333333333333,11.8109050515603,19.6158867591101,6.93504556174889,-0.00399816616811322,1,14.0777777777778,29.9
0.566666666666667,11.8122572122869,19.846984379255,6.93104932103755,-0.00399624071134319,1,14.0361111111111,29.9
0.6,11.813664416229,20.07794848843,6.92705472959606,-0.00399459144148739,1,14,29.9
0.633333333333333,11.8151273807107,20.3087791200901,6.92306159359656,-0.0039931359995018,1,13.9694444444444,29.9
0.666666666666667,11.8166475696974,20.5394759334551,6.91904797734241,-0.00401361625414509,1,13.9444444444444,29.9
0.7,11.8182266183611,20.7699808124864,6.91156958499821,-0.00747839234419967,1,13.925,29.9
0.733333333333333,11.8198651976579,21.0000343692494,6.89199450478792,-0.019575080210287,3,13.9111111111111,29.9
0.766666666666667,11.8215621851553,21.2291178484923,6.85339236187507,-0.0386021429128531,3,13.9027777777778,29.9
0.8,11.823315473715,21.4566835114791,6.80095404779656,-0.0524383140785121,3,13.9,29.9
0.833333333333333,11.8251227648806,21.6823279452233,6.7381480043398,-0.0628060434567574,3,13.9,29.9
0.866666666666667,11.826981634771,21.9057920520398,6.67016444320082,-0.067983561138985,3,13.9,29.9
0.9,11.82888971967,22.1269606677265,6.60044900294774,-0.069715440253078,3,13.9,29.9
0.933333333333333,11.8308436537461,22.3457764411404,6.52902421744016,-0.0714247855075838,3,13.9,29.9
0.966666666666667,11.8328372033845,22.5621824332339,6.45589070196465,-0.0731335154755079,3,13.9,29.9
1,11.8348641660706,22.776063960662,6.37758305516343,-0.078307646801222,3,13.9,29.9
1.03333333333333,11.8369195553447,22.9873059977202,6.29754638241216,-0.0800366727512696,3,13.9,29.9
1.06666666666667,11.839000051816,23.1958800025351,6.21752501342019,-0.0800213689919609,3,13.9,29.9
1.1,11.8411033506687,23.4017865037041,6.13751907152959,-0.0800059418906054,3,13.9,29.9
1.13333333333333,11.8432272146099,23.6049686286342,6.05408440241846,-0.0834346691111341,3,13.9,29.9
1.16666666666667,11.8453692260986,23.8053117479686,5.96719967054243,-0.0868847318760277,3,13.9,29.9
1.2,11.8475268174956,24.0026721830176,5.87514330745443,-0.0920563630879947,3,13.9,29.9
1.23333333333333,11.849696850585,24.1968485107146,5.77617219967289,-0.0989711077815389,3,13.9,29.9
1.26666666666667,11.8518762923713,24.3876684026011,5.67377521344017,-0.102396986232726,3,13.9,29.9
1.3,11.8540627110901,24.5750460234144,5.56965334246164,-0.104121870978524,3,13.9,29.9
1.33333333333333,11.8562531637043,24.7588664915488,5.4603627791254,-0.109290563336247,3,13.9,29.9
1.36666666666667,11.8584444758694,24.9390153110325,5.34937026289296,-0.110992516232434,3,13.9,29.9
1.4,11.8606335222819,25.1154067055302,5.23493218703999,-0.114438075852975,3,13.9,29.9
1.43333333333333,11.8628163607419,25.2878971505271,5.1153268459644,-0.119605341075585,3,13.9,29.9
1.46666666666667,11.8649879012632,25.4562566776714,4.98708876362482,-0.128238082339578,3,13.9,29.9
1.5,11.8671428172311,25.6202553507396,4.85368492046268,-0.133403843162146,3,13.9,29.9
1.53333333333333,11.8692758707517,25.7796923281444,4.71339385109036,-0.140291069372322,3,13.9,29.9
1.56666666666667,11.8713816348904,25.934366798118,4.56793850433085,-0.145455346759509,3,13.9,29.9
1.6,11.8734558424443,26.0841921427228,4.42242048601091,-0.145518018319935,3,13.9,29.9
1.63333333333333,11.8754951288475,26.229164908541,4.27679190992708,-0.145628576083836,3,13.9,29.9
1.66666666666667,11.8774965054514,26.3693109606546,4.13282102619935,-0.143970883727724,3,13.9,29.9
1.7,11.8794567380348,26.5046287645406,3.98709631945929,-0.145724706740061,3,13.9,29.9
1.73333333333333,11.8813723780943,26.6350890169747,3.84136356126273,-0.145732758196566,3,13.9,29.9
1.76666666666667,11.883240477124,26.7606917819533,3.69563951321373,-0.145724048048992,3,13.9,29.9
1.8,11.8850586180963,26.8814662971598,3.55165819495521,-0.143981318258527,3,13.9,29.9
1.83333333333333,11.886825309915,26.9974998951197,3.41117172026078,-0.140486474694425,3,13.8991319444444,29.9
1.86666666666667,11.8885396475345,27.1089088312587,3.27416368337272,-0.137008036888066,3,13.8965277777778,29.9
1.9,11.8902020992207,27.2158959689369,3.14584754371813,-0.128316139654589,3,13.8921875,29.9
1.93333333333333,11.8918153314855,27.3188088377106,3.02969083029875,-0.116156713419375,3,13.8861111111111,29.9
1.96666666666667,11.8933835332806,27.4180814429926,2.9274154964008,-0.10227533389795,3,13.8782986111111,29.9
2,11.894910535339,27.5140896247295,2.83381013280202,-0.0936053635987792,3,13.86875,29.9
2.03333333333333,11.8963982745803,27.6070649382863,2.7454287978306,-0.0883813349714244,3,13.8574652777778,29.9
2.06666666666667,11.8978465968708,27.6971527924595,2.66054778473076,-0.0848810130998343,3,13.8444444444444,29.9
2.1,11.899256157643,27.7845275994288,2.58263175828458,-0.0779160264461818,3,13.8296875,29.9
2.13333333333333,11.9006297785773,27.8695075741324,2.51684514478761,-0.065786613496972,3,13.8131944444444,29.9
2.16666666666667,11.9019704779451,27.9525547436505,2.46665117889785,-0.0501939658897599,3,13.7949652777778,29.9
2.2,11.9032801443867,28.0341314127463,2.42860190486878,-0.0380492740290665,3,13.775,29.9
2.23333333333333,11.9045601921313,28.1148149643719,2.41304822137768,-0.0155536834911034,2,13.7532986111111,29.9
2.26666666666667,11.9058115204942,28.1951830100219,2.40965244249068,-0.0033957788870036,2,13.7298611111111,29.9
2.3,11.907030359833,28.2754384470141,2.40626798327858,-0.00338445921209374,2,13.7046875,29.9
2.33333333333333,11.9082124604325,28.3555816661638,2.40289172968906,-0.00337625358952609,2,13.6777777777778,29.9
2.36666666666667,11.9093571241756,28.4356129231746,2.39952121077498,-0.00337051891407958,2,13.6491319444444,29.9
2.4,11.9104658841073,28.5155323807189,2.39615453361233,-0.00336667716265238,2,13.61875,29.9
2.43333333333333,11.9115419286949,28.5953401339552,2.39279036581715,-0.00336416779517945,2,13.5866319444444,29.9
2.46666666666667,11.9125903335861,28.6750362200988,2.38942792401038,-0.00336244180676282,2,13.5527777777778,29.9
2.5,11.9136167565673,28.7546206468,2.38606693028781,-0.00336099372257292,2,13.5171875,29.9
2.53333333333333,11.9146270214013,28.8340934049593,2.38270754658807,-0.00335938369974365,2,13.4798611111111,29.9
2.56666666666667,11.9156248616409,28.9134545053495,2.3793501993055,-0.0033573472825692,2,13.4407986111111,29.9
2.6,11.9166117755938,28.9927039831723,2.37599538380444,-0.00335481550106032,2,13.4,29.9
2.63333333333333,11.9175855351468,29.0718419387814,2.37264553826902,-0.00334984553541506,2,13.3574652777778,29.9
2.66666666666667,11.9185411006583,29.1508723389914,2.36976404475962,-0.00288149350939904,2,13.3131944444444,29.9
2.7,11.9194716886156,29.2298466717888,2.36968051669555,-8.35280640774094e-05,2,13.2671875,29.9
2.73333333333333,11.9203719495042,29.308892905558,2.37430701477885,0.00462649808330218,2,13.2194444444444,29.9
2.76666666666667,11.9212387960452,29.3881898716204,2.38487285514687,0.0105658403680207,2,13.1699652777778,29.9
2.8,11.9220723816957,29.4679515590955,2.40231537908458,0.0174425239377136,2,13.11875,29.9
2.83333333333333,11.9228759830195,29.5484198924315,2.42734279365786,0.0250274145732803,4,13.0657986111111,29.9
2.86666666666667,11.9236556587177,29.6298553754149,2.46038082734391,0.0330380336860516,4,13.0111111111111,29.9
2.9,11.9244206120197,29.7125287002857,2.50160563139498,0.0412248040510668,4,12.9546875,29.9
2.93333333333333,11.9251820447588,29.7967117134034,2.5509135340765,0.0493079026815244,4,12.8965277777778,29.9
2.96666666666667,11.9259514205293,29.8826683550533,2.60793766424216,0.0570241301656504,4,12.8366319444444,29.9
3,11.9267412570621,29.9706463425585,2.67208586747563,0.0641482032334757,4,12.775,29.9
3.03333333333333,11.9275633118271,30.0608712355177,2.74263188942196,0.0705460219463312,4,12.7116319444444,29.9
3.06666666666667,11.9284273456472,30.1535426859805,2.81875867570013,0.0761267862781692,4,12.6465277777778,29.9
3.1,11.9293402845318,30.2488327125216,2.89962881594653,0.0808701402463954,4,12.5796875,29.9
3.13333333333333,11.9303047161153,30.3468854083499,2.98441108483329,0.084782268886765,4,12.5111111111111,29.9
3.16666666666667,11.9313190229815,30.4478181271967,3.072333750865,0.0879226660317052,4,12.4407986111111,29.9
3.2,11.9323782701113,30.5517237556215,3.16269875640136,0.090365005536361,4,12.36875,29.9
3.23333333333333,11.9334753074646,30.6586732598929,3.25488706327118,0.092188306869819,4,12.2949652777778,29.9
3.26666666666667,11.9346023167442,30.7687183225916,3.34835940462906,0.0934723413578791,4,12.2194444444444,29.9
3.3,11.9357528970455,30.8818939349184,3.44265358526305,0.094294180633999,4,12.1421875,29.9
3.33333333333333,11.9369218502377,30.9982208794789,3.53737923098224,0.0947256457191892,4,12.0631944444444,29.9
3.36666666666667,11.9381072682863,31.1177079869115,3.63221097254554,0.0948317415632993,4,11.9824652777778,29.9
3.4,11.9393118483688,31.2403541381826,3.72687441902621,0.094663446480669,4,11.9,29.9
3.43333333333333,11.9405406561202,31.3661487495821,3.82106846722666,0.0941940482004444,4,11.8157986111111,29.9
3.46666666666667,11.9417999508738,31.4950716239861,3.91454196104551,0.0934734938188568,4,11.7298611111111,29.9
3.5,11.9430964526312,31.6270957759624,4.00713462453334,0.0925926634878249,4,11.6421875,29.9
3.53333333333333,11.9444363426931,31.7621900068972,4.09874994718652,0.0916153226531859,4,11.5527777777778,29.9
3.56666666666667,11.9458230520948,31.9003207003114,4.18933491671798,0.0905849695314549,4,11.4616319444444,29.9
3.6,11.9472571115897,32.0414530124083,4.27886404723747,0.0895291305194927,4,11.36875,29.9
3.63333333333333,11.9487367552881,32.1855514524696,4.36732038391182,0.0884563366743496,4,11.2741319444444,29.9
3.66666666666667,11.9502586080807,32.3325802168084,4.45470325325736,0.087382869345535,4,11.1777777777778,29.9
3.7,11.9518183604394,32.4825037989968,4.54102732363159,0.0863240703742312,4,11.0796875,29.9
3.73333333333333,11.9534113558356,32.6352869846449,4.62628227886007,0.0852549552284803,4,10.9798611111111,29.9
3.76666666666667,11.9550330301074,32.7908916555993,4.71027673565164,0.0839944567915687,4,10.8782986111111,29.9
3.8,11.9566797714198,32.9492724410918,4.79285408703208,0.0825773513804462,4,10.775,29.9
3.83333333333333,11.9583505736274,33.1103815162386,4.87395526558391,0.0811011785518296,4,10.6699652777778,29.9
3.86666666666667,11.960044925367,33.2741671592975,4.95343263575597,0.0794773701720599,4,10.5631944444444,29.9
3.9,11.961762223602,33.440573225577,5.03116161492271,0.0777289791667419,4,10.4546875,29.9
3.93333333333333,11.9635018441018,33.6095392229421,5.10702618806425,0.0758645731415344,4,10.3444444444444,29.9
3.96666666666667,11.965263230543,33.7810032204607,5.18105055159173,0.0740243635274762,4,10.2324652777778,29.9
4,11.9670459318433,33.9549033014121,5.25317785465587,0.0721273030641481,4,10.11875,29.9
4.03333333333333,11.9688489270884,34.131174068847,5.32326855736162,0.0700907027057447,4,10.0032986111111,29.9
4.06666666666667,11.9706690576831,34.3097445984562,5.39112707798985,0.0678585206282296,4,9.88611111111111,29.9
4.1,11.9725027511335,34.4905369886223,5.45656227188721,0.0654351938973612,4,9.7671875,29.9
4.13333333333333,11.9743450061597,34.6734692137255,5.51951601557799,0.0629537436907777,4,9.64652777777778,29.9
4.16666666666667,11.976191885278,34.8584593949852,5.58005849985651,0.0605424842785203,4,9.52413194444444,29.9
4.2,11.9780409780422,35.0454298591025,5.63836210011504,0.0583036002585322,4,9.4,29.9
4.23333333333333,11.9798910174452,35.234308871246,5.69457521025427,0.0562131101392263,4,9.27413194444444,29.9
4.26666666666667,11.9817414726719,35.4250272812056,5.74873611012228,0.0541608998680108,4,9.14652777777778,29.9
4.3,11.9835915879125,35.6175189969182,5.8010008922546,0.0522647821323288,4,9.0171875,29.9
4.33333333333333,11.985438617243,35.8117240584615,5.85155899966931,0.050558107414707,4,8.88611111111111,29.9
4.36666666666667,11.9872790007761,36.0075881619096,5.90055424521356,0.0489952455442531,4,8.75329861111111,29.9
4.4,11.9891055851583,36.2050608399282,5.9480672881082,0.0475130428946384,4,8.61875,29.9
4.43333333333333,11.9909115318539,36.4040910832635,5.99387960842003,0.0458123203118248,4,8.48246527777778,29.9
4.46666666666667,11.9926870005254,36.6046047952645,6.03680249434057,0.0429228859205377,4,8.34444444444444,29.9
4.5,11.9944214701318,36.8064799290582,6.07528047133406,0.0384779769934962,4,8.2046875,29.9
4.53333333333333,11.9961068404098,37.0096753294979,6.11931263177395,0.0440321604398912,4,8.06319444444444,29.9
4.56666666666667,11.9977425557578,37.2145305291906,6.17337430893637,0.0540616771624194,4,7.91996527777778,29.9
4.6,11.9993299913894,37.4212517026635,6.23026428829089,0.0568899793545192,4,7.775,29.9
4.63333333333333,12.0008705582966,37.6298449658504,6.28499748947778,0.0547332011868837,4,7.62829861111111,29.9
4.66666666666667,12.0023653714146,37.8401807350223,6.33437774568313,0.049380256205354,4,7.47986111111111,29.9
4.7,12.0038151111108,38.0520446260625,6.37640887269341,0.0420311270102838,4,7.3296875,29.9
4.73333333333333,12.005219978282,38.2651692199611,6.40980453444067,0.0333956617472557,4,7.17777777777778,29.9
4.76666666666667,12.0065796979826,38.4792499591734,6.43379823773615,0.0239937032954769,4,7.02413194444444,29.9
4.8,12.0078938825636,38.6939942711359,6.45000312221545,0.0162048844793086,1,6.86875,29.9
4.83333333333333,12.009162470335,38.90918021633,6.46058969877869,0.0105865765632309,1,6.71163194444444,29.9
4.86666666666667,12.0103856156055,39.124648405942,6.46714405906088,0.00655436028219736,1,6.55277777777778,29.9
4.9,12.01156350749,39.3402844043139,6.47080218591746,0.00365812685658096,1,6.3921875,29.9
4.93333333333333,12.0126962392375,39.5560059676587,6.47237742750161,0.00157524158414368,1,6.22986111111111,29.9
