Time,x_ego,y_ego,velocity,acceleration,action,x_ped,y_ped
0,11.8,8.9,5,0,1,15.5,29.9
0.0333333333333333,11.8,9.06660768884189,4.99642261439338,-0.0035773856066168,1,15.5,29.9
0.0666666666666667,11.8,9.23309265311448,4.99264756783477,-0.00377504655861216,1,15.5,29.9
0.1,11.8,9.39944929692399,4.98873130122091,-0.00391626661385835,1,15.5,29.9
0.133333333333333,11.8,9.56567362451385,4.98471426828108,-0.00401703293983147,1,15.5,29.9
0.166666666666667,11.8,9.7317627870126,4.98062546389497,-0.00408880438611448,1,15.5,29.9
0.2,11.8,9.89771475756689,4.97648566969706,-0.00413979419790333,1,15.5,29.9
0.233333333333333,11.8,10.063528098494,4.97230978036584,-0.00417588933122204,1,15.5,29.9
0.266666666666667,11.8,10.2292017943893,4.96810847105553,-0.00420130931030815,1,15.5,29.9
0.3,11.7999993857581,10.3947351325063,4.96388939289738,-0.00421907815815104,1,15.5,29.9
0.333333333333333,11.7999954437325,10.5601276170144,4.95965803171148,-0.00423136118590151,1,15.5,29.9
0.366666666666667,11.7999858263963,10.7253789075203,4.95541832063759,-0.00423971107389232,1,15.5,29.9
0.4,11.7999691790641,10.8904887749868,4.95117307701731,-0.00424524362028045,1,15.5,29.9
0.433333333333333,11.799944970411,11.0554570701518,4.94692431757775,-0.0042487594395535,1,15.5,29.9
0.466666666666667,11.7999132829829,11.2202837009242,4.94267348591167,-0.00425083166608697,1,15.5,29.9
0.5,11.7998746077492,11.3849686162099,4.93842161599098,-0.00425186992068483,1,15.5,29.9
0.533333333333333,11.7998296692295,11.5495117943331,4.9341694490825,-0.00425216690847918,1,15.5,29.9
0.566666666666667,11.7997792916174,11.7139132347358,4.92991751702427,-0.00425193205822882,1,15.5,29.9
0.6,11.7997243044585,11.8781729520189,4.92566620149923,-0.00425131552503988,1,15.5,29.9
0.633333333333333,11.7996654799087,12.0422909716559,4.92141577633009,-0.00425042516914775,1,15.5,29.9
0.666666666666667,11.7996034919846,12.2062673269075,4.91716643778946,-0.00424933854062637,1,15.5,29.9
0.7,11.7995388900544,12.370102056599,4.91291832641021,-0.00424811137925474,1,15.5,29.9
0.733333333333333,11.7994720822381,12.5337952035205,4.90867154271332,-0.00424678369688625,1,15.5,29.9
0.766666666666667,11.7994033276727,12.6973468132771,4.90442615854432,-0.004245384168998,1,15.5,29.9
0.8,11.7993327386007,12.8607569334643,4.90018222522173,-0.00424393332258877,1,15.5,29.9
0.833333333333333,11.7992602935149,13.0240256130796,4.89593977937044,-0.0042424458512933,1,15.5,29.9
0.866666666666667,11.7991858613782,13.187152902105,4.89169884708026,-0.00424093229017775,1,15.5,29.9
0.9,11.7991092349173,13.3501388512133,4.88745944686051,-0.00423940021975167,1,15.5,29.9
0.933333333333333,11.799030168988,13.512983511563,4.88322159173601,-0.00423785512449903,1,15.5,29.9
0.966666666666667,11.7989484187609,13.6756869346569,4.87898529073784,-0.00423630099816918,1,15.5,29.9
1,11.7988637723818,13.8382491722451,4.87475054997479,-0.00423474076304764,1,15.5,29.9
1.03333333333333,11.7987760738474,14.0006702762572,4.87051737342036,-0.00423317655443345,1,15.5,29.9
1.06666666666667,11.7986852338101,14.1629502987548,4.86628576350852,-0.00423160991184268,1,15.5,29.9
1.1,11.7985912283509,14.3250892918948,4.86205572159645,-0.00423004191206644,1,15.5,29.9
1.13333333333333,11.7984940878897,14.4870873079006,4.85782724832482,-0.00422847327163289,1,15.5,29.9
1.16666666666667,11.7983938798688,14.6489443990376,4.85360034388886,-0.0042269044359573,1,15.5,29.9
1.2,11.7982906894049,14.8106606175923,4.84937500822729,-0.00422533566156957,1,15.5,29.9
1.23333333333333,11.7981846017466,14.9722360158543,4.84515124113797,-0.00422376708932504,1,15.5,29.9
1.26666666666667,11.7980756893023,15.1336706461031,4.84092904233482,-0.00422219880314945,1,15.5,29.9
1.3,11.7979640045605,15.294964560598,4.83670841146463,-0.00422063087018731,1,15.5,29.9
1.33333333333333,11.7978495787767,15.4561178115722,4.83248934810246,-0.00421906336216527,1,15.5,29.9
1.36666666666667,11.797732425162,15.6171304512302,4.82827185174112,-0.0042174963613455,1,15.5,29.9
1.4,11.7976125446777,15.7780025317478,4.82405592178462,-0.00421592995650055,1,15.5,29.9
1.43333333333333,11.7974899324469,15.9387341052733,4.81984155755043,-0.0042143642341852,1,15.5,29.9
1.46666666666667,11.7973645831661,16.0993252239288,4.81562875828083,-0.00421279926960239,1,15.5,29.9
1.5,11.7972364945485,16.2597759398115,4.811417523161,-0.00421123511983357,1,15.5,29.9
1.53333333333333,11.7971056685552,16.420086304994,4.80720785134012,-0.00420967182087839,1,15.4777777777778,29.9
1.56666666666667,11.7969721107814,16.5802563715239,4.80299974195142,-0.00420810938869653,1,15.4111111111111,29.9
1.6,11.7968358287456,16.740286191422,4.7987931941279,-0.00420654782352692,1,15.3,29.9
1.63333333333333,11.7966968299294,16.9001758166817,4.79458820701192,-0.00420498711598061,1,15.1698412698413,29.9
1.66666666666667,11.7965551202778,17.0599252992675,4.79038477975863,-0.00420342725328826,1,15.0460317460317,29.9
1.7,11.7964107035736,17.2195346911147,4.78618291153436,-0.0042018682242686,1,14.9285714285714,29.9
1.73333333333333,11.7962635817548,17.3790040441296,4.78198260151214,-0.00420031002222299,1,14.8174603174603,29.9
1.76666666666667,11.7961137559481,17.5383334101901,4.77778384886649,-0.00419875264564773,1,14.7126984126984,29.9
1.8,11.7959612278177,17.6975228411468,4.77358665276929,-0.00419719609719937,1,14.6142857142857,29.9
1.83333333333333,11.7958060007929,17.8565723888239,4.76939101238761,-0.00419564038168296,1,14.5222222222222,29.9
1.86666666666667,11.7956480808283,18.0154821050202,4.76519692688373,-0.00419408550387868,1,14.4365079365079,29.9
1.9,11.7954874765239,18.174252041509,4.76100439541689,-0.00419253146683474,1,14.3571428571429,29.9
1.93333333333333,11.7953241986241,18.332882250038,4.75681341714585,-0.00419097827104586,1,14.284126984127,29.9
1.96666666666667,11.7951582590741,18.4913727823284,4.7526239912313,-0.00418942591454563,1,14.2174603174603,29.9
2,11.7949896699067,18.6497236900742,4.74843611683756,-0.00418787439374402,1,14.1571428571429,29.9
2.03333333333333,11.7948184422378,18.8079350249411,4.74424979313298,-0.0041863237045785,1,14.1031746031746,29.9
2.06666666666667,11.7946445855892,18.9660068385663,4.74006501928932,-0.00418477384365801,1,14.0555555555556,29.9
2.1,11.79446810765,19.1239391825575,4.73588179448033,-0.00418322480899391,1,14.0142857142857,29.9
2.13333333333333,11.7942890144658,19.2817321084935,4.73170011788007,-0.00418167660025937,1,13.9793650793651,29.9
2.16666666666667,11.7941073109482,19.4393856679246,4.72751998866154,-0.00418012921853084,1,13.9507936507936,29.9
2.2,11.7939230015376,19.596899912373,4.72334140599586,-0.00417858266568061,1,13.9285714285714,29.9
2.23333333333333,11.7937360908435,19.7542748933336,4.71916436905217,-0.00417703694368132,1,13.9126984126984,29.9
2.26666666666667,11.7935465841211,19.9115106622744,4.71498887699824,-0.0041754920539292,1,13.9031746031746,29.9
2.3,11.7933544875045,20.0686072706369,4.71081492900138,-0.00417394799686122,1,13.9,29.9
2.33333333333333,11.7931598079882,20.2255647698358,4.70664252422952,-0.00417240477186009,1,13.9,29.9
2.36666666666667,11.7929625532103,20.3823832112596,4.7024716618521,-0.00417086237741859,1,13.9,29.9
2.4,11.7927627311261,20.5390626462693,4.69830234104059,-0.00416932081151788,1,13.9,29.9
2.43333333333333,11.7925603496737,20.695603126199,4.69413456096849,-0.00416778007209295,1,13.9,29.9
2.46666666666667,11.7923554165116,20.8520047023549,4.68996832081111,-0.0041662401573852,1,13.9,29.9
2.5,11.7921479388815,21.0082674260156,4.68580361974491,-0.00416470106620004,1,13.9,29.9
2.53333333333333,11.7919379236035,21.1643913484322,4.68164045694696,-0.00416316279795304,1,13.9,29.9
2.56666666666667,11.7917253771807,21.3203765208277,4.6774788315944,-0.0041616253525536,1,13.9,29.9
2.6,11.7915103063984,21.4762226310762,4.67329694395164,-0.00418188764275751,1,13.9,29.9
2.63333333333333,11.791292927922,21.6317564258746,4.65874031249461,-0.0145566314570384,1,13.9,29.9
2.66666666666667,11.7910735364536,21.7867472778585,4.6407207679593,-0.0180195445353091,3,13.9,29.9
2.7,11.7908522274132,21.9411375440482,4.62270549983863,-0.018015268120668,3,13.9,29.9
2.73333333333333,11.7906291422526,22.094840907967,4.59950703385023,-0.0231984659883997,3,13.9,29.9
2.76666666666667,11.7904046899544,22.2475694435185,4.56421637411108,-0.035290659739152,3,13.9,29.9
2.8,11.7901795234854,22.398861985189,4.51334817670092,-0.0508681974101544,3,13.9,29.9
2.83333333333333,11.7899544789146,22.5481419327919,4.44346176649687,-0.0698864102040542,3,13.9,29.9
2.86666666666667,11.7897303944454,22.694862252541,4.35977176063108,-0.0836900058657841,3,13.9,29.9
2.9,11.7895080377537,22.8385625300843,4.26226088186717,-0.0975108787639112,3,13.9,29.9
2.93333333333333,11.7892881413585,22.9788399051384,4.15439979787988,-0.107861083987297,3,13.9,29.9
2.96666666666667,11.7890713189252,23.1154068323924,4.03963690215718,-0.114762895722698,3,13.9,29.9
3,11.7888581759455,23.2480045917746,3.9162534868605,-0.123383415296674,3,13.9,29.9
3.03333333333333,11.7886493418027,23.3763749381366,3.7859966883314,-0.130256798529105,3,13.9,29.9
3.06666666666667,11.7884455062585,23.5002310256351,3.64540318348134,-0.140593504850062,3,13.9,29.9
3.1,11.788247415637,23.6192570434337,3.49619798979379,-0.149205193687551,3,13.9,29.9
3.13333333333333,11.7880557025057,23.7332237512367,3.34184976485453,-0.154348224939257,3,13.9,29.9
3.16666666666667,11.787871047716,23.8418732919246,3.1771723934997,-0.164677371354833,3,13.9,29.9
3.2,11.7876942206999,23.9448901252707,3.00389051206832,-0.17328188143138,3,13.9,29.9
3.23333333333333,11.7875258652865,24.042045269492,2.82547258921878,-0.178417922849541,3,13.9,29.9
3.26666666666667,11.7873665382093,24.1331675872359,2.6419206245306,-0.183551964688176,3,13.9,29.9
3.3,11.7872167045253,24.2181434106893,2.45668070436076,-0.185239920169837,3,13.9,29.9
3.33333333333333,11.7870766865326,24.2969455925089,2.27149806569439,-0.185182638666371,3,13.8991319444444,29.9
3.36666666666667,11.7869467320838,24.3695780489039,2.08664822844378,-0.184849837250609,3,13.8965277777778,29.9
3.4,11.7868270038028,24.4360767948794,1.90373679876638,-0.1829114296774,3,13.8921875,29.9
3.43333333333333,11.7867175997831,24.4964965366373,1.72197707890197,-0.181759719864411,3,13.8861111111111,29.9
3.46666666666667,11.7866186022906,24.5508809057804,1.54163241479606,-0.180344664105908,3,13.8782986111111,29.9
3.5,11.7865300102968,24.5993078994155,1.36454115990046,-0.1770912548956,3,13.86875,29.9
3.53333333333333,11.7864517477556,24.6418868896907,1.19075480057072,-0.173786359329746,3,13.8574652777778,29.9
3.56666666666667,11.7863837151958,24.6787282139656,1.02029051047659,-0.170464290094126,3,13.8444444444444,29.9
3.6,11.7863257908152,24.7099447748208,0.853314313415763,-0.166976197060828,3,13.8296875,29.9
3.63333333333333,11.7862778284993,24.7356552921482,0.689925494397173,-0.16338881901859,3,13.8131944444444,29.9
3.66666666666667,11.7862396714268,24.7559775039674,0.530032154427416,-0.159893339969757,3,13.7949652777778,29.9
3.7,11.7862111538592,24.7710285235599,0.373700782465913,-0.156331371961503,3,13.775,29.9
3.73333333333333,11.7861920994446,24.7809271640628,0.220942233787831,-0.152758548678081,3,13.7532986111111,29.9
3.76666666666667,11.7861822817426,24.7858195713024,0.0736085544762928,-0.147333679311539,3,13.7298611111111,29.9
3.8,11.7861807766447,24.7862821537031,0.00893386701434068,-0.0646746874619522,3,13.7046875,29.9
3.83333333333333,11.7861815060926,24.7860877176232,0.00711540188517951,-0.00181846512916117,5,13.6777777777778,29.9
3.86666666666667,11.7861815060926,24.7860877176232,0.00784648779872561,0.000731085913546104,5,13.6491319444444,29.9
3.9,11.7861815060926,24.7860877176232,0.00892079536859383,0.00107430756986821,5,13.61875,29.9
3.93333333333333,11.7861815060926,24.7860877176232,0.0102244300789049,0.0013036347103111,5,13.5866319444444,29.9
3.96666666666667,11.7861815060926,24.7860877176232,0.0115967034097262,0.00137227333082128,5,13.5527777777778,29.9
4,11.7861815060926,24.7860877176232,0.0128577347856098,0.00126103137588357,5,13.5171875,29.9
4.03333333333333,11.7861815060926,24.7860877176232,0.0138333604179698,0.000975625632359993,5,13.4798611111111,29.9
4.06666666666667,11.7861815060926,24.7860877176232,0.0143755908763759,0.000542230458406177,5,13.4407986111111,29.9
4.1,11.7861815060926,24.7860877176232,0.0143775252202454,1.93434386947314e-06,5,13.4,29.9
4.13333333333333,11.7861815060926,24.7860877176232,0.0137822674949192,-0.000595257725326228,5,13.3574652777778,29.9
4.16666666666667,11.7861815060926,24.7860877176232,0.012585958166683,-0.00119630932823615,5,13.3131944444444,29.9
4.2,11.7861815060926,24.7860877176232,0.0108354979728208,-0.00175046019386223,5,13.2671875,29.9
4.23333333333333,11.7861815060926,24.7860877176232,0.00862188661293511,-0.00221361135988569,5,13.2194444444444,29.9
4.26666666666667,11.7861815060926,24.7860877176232,0.00607031738782166,-0.00255156922511346,5,13.1699652777778,29.9
4.3,11.7861815060926,24.7860877176232,0.00332826523860161,-0.00274205214922005,5,13.11875,29.9
4.33333333333333,11.7861815060926,24.7860877176232,0.000552791867166409,-0.0027754733714352,5,13.0657986111111,29.9
4.36666666666667,11.7861815060926,24.7860877176232,0.00210181400502362,0.00154902213785721,5,13.0111111111111,29.9
4.4,11.7861815060926,24.7860877176232,0.0044951186290099,0.00239330462398627,5,12.9546875,29.9
4.43333333333333,11.7861815060926,24.7860877176232,0.00650962650966937,0.00201450788065948,5,12.8965277777778,29.9
4.46666666666667,11.7861815060926,24.7860877176232,0.00805738859078141,0.00154776208111203,5,12.8366319444444,29.9
4.5,11.7861815060926,24.7860877176232,0.00908390512492514,0.00102651653414373,5,12.775,29.9
4.53333333333333,11.7861815060926,24.7860877176232,0.00956932257449176,0.00048541744956662,5,12.7116319444444,29.9
4.56666666666667,11.7861815060926,24.7860877176232,0.00952712259974469,-4.21999747470692e-05,5,12.6465277777778,29.9
4.6,11.7861815060926,24.7860877176232,0.00900065912176014,-0.000526463477984546,5,12.5796875,29.9
4.63333333333333,11.7861815060926,24.7860877176232,0.0080580110432722,-0.00094264807848795,5,12.5111111111111,29.9
4.66666666666667,11.7861815060926,24.7860877176232,0.00678568199758034,-0.00127232904569186,5,12.4407986111111,29.9
4.7,11.7861815060926,24.7860877176232,0.00528169657586552,-0.00150398542171482,5,12.36875,29.9
4.73333333333333,11.7861815060926,24.7860877176232,0.00364861984836403,-0.0016330767275015,5,12.2949652777778,29.9
4.76666666666667,11.7861815060926,24.7860877176232,0.0019869707517868,-0.00166164909657723,5,12.2194444444444,29.9
4.8,11.7861815060926,24.7860877176232,0.000389418483869258,-0.00159755226791754,5,12.1421875,29.9
4.83333333333333,11.7861815060926,24.7860877176232,0.00106394661173151,0.000674528127862247,5,12.0631944444444,29.9
4.86666666666667,11.7861815060926,24.7860877176232,0.00230908125704932,0.00124513464531782,5,11.9824652777778,29.9
4.9,11.7861815060926,24.7860877176232,0.00330011452941881,0.000991033272369487,5,11.9,29.9
4.93333333333333,11.7861815060926,24.7860877176232,0.00401014501006586,0.000710030480647049,5,11.8157986111111,29.9
4.96666666666667,11.7861815060926,24.7860877176232,0.00443080832348228,0.000420663313416422,5,11.7298611111111,29.9
5,11.7861815060926,24.7860877176232,0.00457078046981574,0.000139972146333462,5,11.6421875,29.9
5.03333333333333,11.7861815060926,24.7860877176232,0.00445343015710378,-0.000117350312711965,5,11.5527777777778,29.9
5.06666666666667,11.7861815060926,24.7860877176232,0.00411386145114596,-0.000339568705957813,5,11.4616319444444,29.9
5.1,11.7861815060926,24.7860877176232,0.00359559722905409,-0.000518264222091875,5,11.36875,29.9
5.13333333333333,11.7861815060926,24.7860877176232,0.00294714603378797,-0.000648451195266116,5,11.2741319444444,29.9
5.16666666666667,11.7861815060926,24.7860877176232,0.00221867271872814,-0.000728473315059832,5,11.1777777777778,29.9
5.2,11.7861815060926,24.7860877176232,0.00145896003478198,-0.000759712683946161,5,11.0796875,29.9
5.23333333333333,11.7861815060926,24.7860877176232,0.000712807601593731,-0.000746152433188249,5,10.9798611111111,29.9
5.26666666666667,11.7861815060926,24.7860877176232,1.897006951726e-05,-0.000693837532076471,5,10.8782986111111,29.9
5.3,11.7861815060926,24.7860877176232,0.000591308960799239,0.000572338891281979,5,10.775,29.9
5.33333333333333,11.7861815060926,24.7860877176232,0.00109515363147203,0.000503844670672794,5,10.6699652777778,29.9
5.36666666666667,11.7861815060926,24.7860877176232,0.00147832776957086,0.000383174138098823,5,10.5631944444444,29.9
5.4,11.7861815060926,24.7860877176232,0.00173497855668685,0.000256650787115993,5,10.4546875,29.9
5.43333333333333,11.7861815060926,24.7860877176232,0.00186693270762057,0.000131954150933726,5,10.3444444444444,29.9
5.46666666666667,11.7861815060926,24.7860877176232,0.00188264221213534,1.57095045147614e-05,5,10.2324652777778,29.9
5.5,11.7861815060926,24.7860877176232,0.00179588500680973,-8.67572053256014e-05,5,10.11875,29.9
5.53333333333333,11.7861815060926,24.7860877176232,0.00162432685205536,-0.000171558154754375,5,10.0032986111111,29.9
5.56666666666667,11.7861815060926,24.7860877176232,0.00138804512657019,-0.000236281725485172,5,9.88611111111111,29.9
5.6,11.7861815060926,24.7860877176232,0.00110810442124999,-0.000279940705320202,5,9.7671875,29.9
5.63333333333333,11.7861815060926,24.7860877176232,0.000805259077398603,-0.000302845343851382,5,9.64652777777778,29.9
5.66666666666667,11.7861815060926,24.7860877176232,0.000498840581822734,-0.000306418495575869,5,9.52413194444444,29.9
5.7,11.7861815060926,24.7860877176232,0.000205869373369078,-0.000292971208453656,5,9.4,29.9
5.73333333333333,11.7861815060926,24.7860877176232,5.95876194583203e-05,-0.000146281753910758,5,9.27413194444444,29.9
5.76666666666667,11.7861815060926,24.7860877176232,0.000286809432838495,0.000227221813380175,5,9.14652777777778,29.9
5.8,11.7861815060926,24.7860877176232,0.000468574237801774,0.000181764804963279,5,9.0171875,29.9
5.83333333333333,11.7861815060926,24.7860877176232,0.000601096299672265,0.000132522061870491,5,8.88611111111111,29.9
5.86666666666667,11.7861815060926,24.7860877176232,0.00068377913234104,8.26828326687756e-05,5,8.75329861111111,29.9
5.9,11.7861815060926,24.7860877176232,0.000718823432321073,3.50442999800323e-05,5,8.61875,29.9
5.93333333333333,11.7861815060926,24.7860877176232,0.000710731475406469,-8.09195691460344e-06,5,8.48246527777778,29.9
5.96666666666667,11.7861815060926,24.7860877176232,0.000665749919226457,-4.49815561800121e-05,5,8.34444444444444,29.9
6,11.7861815060926,24.7860877176232,0.000591290755945907,-7.44591632805498e-05,5,8.2046875,29.9
6.03333333333333,11.7861815060926,24.7860877176232,0.00049536597091234,-9.59247850335675e-05,5,8.06319444444445,29.9
6.06666666666667,11.7861815060926,24.7860877176232,0.000484678235736176,-1.06877351761638e-05,5,7.91996527777778,29.9
6.1,11.7861805264667,24.7866958233775,0.0344314168394579,0.0339467386037217,4,7.775,29.9
6.13333333333333,11.7861773032633,24.7886965751869,0.0855406319011132,0.0511092150616553,4,7.62829861111111,29.9
6.16666666666667,11.7861713504201,24.7923906037556,0.135977275265878,0.0504366433647646,4,7.47986111111111,29.9
6.2,11.7861627068758,24.7977506987636,0.185474315726956,0.0494970404610783,4,7.3296875,29.9
6.23333333333333,11.7861514189394,24.8047422685836,0.233849020108214,0.0483747043812575,4,7.17777777777778,29.9
6.26666666666667,11.7861375345721,24.8133261399061,0.281023596946207,0.0471745768379936,4,7.02413194444444,29.9
6.3,11.7861210952177,24.8234630604905,0.327049688642388,0.0460260916961808,4,6.86875,29.9
6.33333333333333,11.7861021319463,24.8351157358129,0.37198158277477,0.0449318941323822,4,6.71163194444445,29.9
6.36666666666667,11.7860806657688,24.8482485105502,0.415862872607006,0.0438812898322359,4,6.55277777777778,29.9
6.4,11.7860567083607,24.8628270521718,0.458729628680264,0.0428667560732582,4,6.3921875,29.9
6.43333333333333,11.7860302632351,24.8788180241771,0.500601866625608,0.0418722379453437,4,6.22986111111111,29.9
