Time,x_ego,y_ego,velocity,acceleration,action,x_ped,y_ped
0,11.8,8.9,5,0,1,15.5,29.9
0.0333333333333333,11.8,9.06660768884189,4.99642261439338,-0.0035773856066168,1,15.4502170138889,29.9
0.0666666666666667,11.8,9.23309265311448,4.99264756783477,-0.00377504655861216,1,15.4008680555556,29.9
0.1,11.8,9.39944929692399,4.98873130122091,-0.00391626661385835,1,15.351953125,29.9
0.133333333333333,11.8,9.56567362451385,4.98471426828108,-0.00401703293983147,1,15.3034722222222,29.9
0.166666666666667,11.8,9.7317627870126,4.98062546389497,-0.00408880438611448,1,15.2554253472222,29.9
0.2,11.8,9.89771475756689,4.97648566969706,-0.00413979419790333,1,15.2078125,29.9
0.233333333333333,11.8,10.063528098494,4.97230978036584,-0.00417588933122204,1,15.1606336805556,29.9
0.266666666666667,11.8,10.2292017943893,4.96810847105553,-0.00420130931030815,1,15.1138888888889,29.9
0.3,11.8,10.3947351325064,4.96388939262275,-0.00421907843277847,1,15.067578125,29.9
0.333333333333333,11.8,10.5601276170202,4.95965802839236,-0.00423136423039949,1,15.0217013888889,29.9
0.366666666666667,11.8,10.7253789075748,4.95541830829244,-0.00423972009991047,1,14.9762586805556,29.9
0.4,11.8,10.8904887752388,4.95117304903021,-0.00424525926223307,1,14.93125,29.9
0.433333333333333,11.8,11.0554570709351,4.94692426953351,-0.00424877949670321,1,14.8866753472222,29.9
0.466666666666667,11.8,11.2202837028143,4.94267341695966,-0.00425085257384605,1,14.8425347222222,29.9
0.5,11.8,11.3849686200364,4.93842152859998,-0.00425188835968093,1,14.798828125,29.9
0.533333333333333,11.8,11.5495118011469,4.93416934785826,-0.00425218074171951,1,14.7555555555556,29.9
0.566666666666667,11.8,11.7139132457448,4.92991740734792,-0.00425194051033717,1,14.7127170138889,29.9
0.6,11.8,11.8781729685112,4.9256660884612,-0.00425131888672592,1,14.6703125,29.9
0.633333333333333,11.8,12.0422909949291,4.92141566410698,-0.00425042435422096,1,14.6283420138889,29.9
0.666666666666667,11.8,12.2062673582159,4.91716632940257,-0.00424933470440969,1,14.5868055555556,29.9
0.7,11.8,12.3701020971241,4.91291822373206,-0.00424810567050482,1,14.545703125,29.9
0.733333333333333,11.8,12.5337952543655,4.9086714466029,-0.0042467771291621,1,14.5050347222222,29.9
0.766666666666667,11.8,12.697346875482,4.90442606903452,-0.00424537756837751,1,14.4648003472222,29.9
0.8,11.8000059773378,12.8607570080232,4.90018216810084,-0.00424390093368565,1,14.425,29.9
0.833333333333333,11.8000443693229,13.02402570048,4.89594002059886,-0.00424214750198093,1,14.3856336805556,29.9
0.866666666666667,11.8001381079938,13.1871529993075,4.89169996473356,-0.00424005586529397,1,14.3467013888889,29.9
0.9,11.8003004720195,13.3501389451856,4.88746208444516,-0.00423788028839844,1,14.308203125,29.9
0.933333333333333,11.8005366915448,13.512983571707,4.88322618262766,-0.00423590181750644,1,14.2701388888889,29.9
0.966666666666667,11.8008459622854,13.6756869073925,4.87899192241939,-0.00423426020827122,1,14.2325086805556,29.9
1,11.8012234396318,13.8382489797971,4.87475898443268,-0.00423293798670699,1,14.1953125,29.9
1.03333333333333,11.8016619503468,14.000669819805,4.87052716053491,-0.00423182389777121,1,14.1585503472222,29.9
1.06666666666667,11.8021533145632,14.1629494646529,4.86629637411622,-0.00423078641868813,1,14.1222222222222,29.9
1.1,11.8026892863647,14.3250879590791,4.86206665318901,-0.00422972092720997,1,14.086328125,29.9
1.13333333333333,11.8032621859178,14.4870853547433,4.8578380878741,-0.00422856531491078,1,14.0508680555556,29.9
1.16666666666667,11.8038653134587,14.6489417084621,4.85361079293815,-0.00422729493595231,1,14.0158420138889,29.9
1.2,11.804493219099,14.8106570798892,4.84938488291803,-0.00422591002011696,1,13.98125,29.9
1.23333333333333,11.8051418703316,14.9722315291712,4.84516045888254,-0.00422442403549361,1,13.9470920138889,29.9
1.26666666666667,11.8058087278827,15.133665114949,4.84093760286612,-0.00422285601641725,1,13.9133680555556,29.9
1.3,11.8064927214903,15.29495789292,4.83671637641682,-0.00422122644930134,1,13.9133680555556,29.9
1.33333333333333,11.807194114659,15.4561099150479,4.83249682118503,-0.00421955523178408,1,13.9133680555556,29.9
1.36666666666667,11.8079142593078,15.6171212294174,4.82827896061253,-0.00421786057250717,1,13.9133680555556,29.9
1.4,11.8086552609567,15.7779918806593,4.82406280221839,-0.00421615839413914,1,13.9133680555556,29.9
1.43333333333333,11.8094195945464,15.9387219108178,4.81984834005962,-0.00421446215876653,1,13.9133680555556,29.9
1.46666666666667,11.8102097219609,16.0993109971722,4.81561375825008,-0.00423458180954484,1,13.9133680555556,29.9
1.5,11.8110272787651,16.2596145788816,4.80272668697445,-0.0128870712756237,1,13.9133680555556,29.9
1.53333333333333,11.8118730726923,16.4194307178091,4.78637655633248,-0.0163501306419729,1,13.9133680555556,29.9
1.56666666666667,11.8127476418332,16.5787017539032,4.77003041360755,-0.0163461427249318,1,13.9133680555556,29.9
1.6,11.8136508958893,16.7373991211907,4.75196670807305,-0.0180637055344945,3,13.9133680555556,29.9
1.63333333333333,11.8145821424486,16.8954942779843,4.73390821119959,-0.0180584968734676,3,13.9133680555556,29.9
1.66666666666667,11.8155398963425,17.0528722322013,4.7089450739806,-0.0249631372189887,3,13.9133680555556,29.9
1.7,11.816522167271,17.2093602577358,4.68052285699772,-0.0284222169828734,3,13.9133680555556,29.9
1.73333333333333,11.8175273679308,17.3649008418733,4.65210873686525,-0.0284141201324761,3,13.9133680555556,29.9
1.76666666666667,11.8185541049802,17.5194655663461,4.6219812642445,-0.030127472620749,3,13.9133680555556,29.9
1.8,11.819600864081,17.6729682687477,4.58839726175721,-0.0335840024872898,3,13.9133680555556,29.9
1.83333333333333,11.8206661468147,17.8252937496739,4.55135769065191,-0.0370395711052947,3,13.9133680555556,29.9
1.86666666666667,11.8217485743094,17.976326842733,4.51086358843597,-0.0404941022159484,3,13.9133680555556,29.9
1.9,11.822846830121,18.1259527803005,4.46693784257881,-0.0439257458571607,3,13.9133680555556,29.9
1.93333333333333,11.8239594302102,18.2740281299266,4.41783766133105,-0.0491001812477601,3,13.9133680555556,29.9
1.96666666666667,11.8250849797602,18.4204378413713,4.36700867064166,-0.0508289906893822,3,13.9133680555556,29.9
2,11.8262224872539,18.5651533735232,4.31619578685129,-0.0508128837903721,3,13.9133680555556,29.9
2.03333333333333,11.8273708847606,18.7081465760165,4.26367751918448,-0.0525182676668097,3,13.9133680555556,29.9
2.06666666666667,11.8285290516035,18.849389321792,4.21117666900044,-0.0525008501840381,3,13.9133680555556,29.9
2.1,11.8296962075007,18.9889109057462,4.16041575567099,-0.0507609133294489,3,13.9133680555556,29.9
2.13333333333333,11.8308714118524,19.1267119275238,4.10795058045604,-0.052465175214957,3,13.9133680555556,29.9
2.16666666666667,11.8320526100811,19.2626200560169,4.046849423462,-0.061101156994039,3,13.9133680555556,29.9
2.2,11.833236736793,19.3963187557878,3.9753915709214,-0.0714578525405964,3,13.9133680555556,29.9
2.23333333333333,11.8344212132069,19.5275780198625,3.9004893859368,-0.0749021849846012,3,13.9133680555556,29.9
2.26666666666667,11.8356045541578,19.6563408377398,3.82561042770367,-0.0748789582331311,3,13.9133680555556,29.9
2.3,11.836785812442,19.782637071387,3.75249953308348,-0.0731108946201906,3,13.9133680555556,29.9
2.33333333333333,11.8379639845283,19.9064966047519,3.67941316899616,-0.0730863640873158,3,13.9133680555556,29.9
2.36666666666667,11.8391378159035,20.0279202698051,3.60635165555307,-0.0730615134430934,3,13.9133680555556,29.9
2.4,11.8403058079823,20.1468798428616,3.53157127428122,-0.0747803812718462,3,13.9133680555556,29.9
2.43333333333333,11.8414660044748,20.2632897072365,3.45337205629347,-0.0781992179877502,3,13.9133680555556,29.9
2.46666666666667,11.8426164426998,20.3770642636843,3.37345495417322,-0.0799171021202563,3,13.9133680555556,29.9
2.5,11.8437551597916,20.4881179320472,3.29012016834519,-0.0833347858280313,3,13.9133680555556,29.9
2.53333333333333,11.844879966217,20.5963364523708,3.20334663903207,-0.0867735293131142,3,13.9133680555556,29.9
2.56666666666667,11.8459894008775,20.7016916960641,3.11832338167254,-0.0850232573595293,3,13.9133680555556,29.9
2.6,11.8470825215194,20.8042133171269,3.03332849079223,-0.0849948908803131,3,13.9133680555556,29.9
2.63333333333333,11.8481581955601,20.9039022748716,2.94836214994103,-0.0849663408512038,3,13.9133680555556,29.9
2.66666666666667,11.8492150875284,21.0007308314743,2.86170232567338,-0.0866598242676431,3,13.9133680555556,29.9
2.7,11.8502521546588,21.094699956869,2.77679353637887,-0.0849087892945173,3,13.9133680555556,29.9
2.73333333333333,11.851268384915,21.1858106222207,2.69019139761166,-0.0866021387672031,3,13.9133680555556,29.9
2.76666666666667,11.8522625380517,21.2740350983191,2.60361818859445,-0.0865732090172076,3,13.9133680555556,29.9
2.8,11.8532333848469,21.3593452949735,2.51532999554886,-0.0882881930455981,3,13.9133680555556,29.9
2.83333333333333,11.854179982768,21.4417421907264,2.42881488209285,-0.0865151134560112,3,13.9133680555556,29.9
2.86666666666667,11.8551014128632,21.5212267638083,2.34058482378268,-0.0882300583101672,3,13.9133680555556,29.9
2.9,11.8559965234517,21.5977709273618,2.25238386593231,-0.0882009578503666,3,13.9133680555556,29.9
2.93333333333333,11.8568642169607,21.671348374793,2.16264990159241,-0.0897339643399024,3,13.9133680555556,29.9
2.96666666666667,11.8577030288809,21.7418910119646,2.0704692110131,-0.0921806905793123,3,13.9133680555556,29.9
3,11.8585123896295,21.8094196141168,1.98187822436077,-0.0885909866523309,3,13.9133680555556,29.9
3.03333333333333,11.8592922210456,21.8740011180894,1.89364836476158,-0.0882298595991877,3,13.9133680555556,29.9
3.06666666666667,11.8600422491972,21.9356769881729,1.80752562750837,-0.0861227372532118,3,13.9133680555556,29.9
3.1,11.860762530971,21.9945165050937,1.72343674624337,-0.0840888812649929,3,13.9133680555556,29.9
3.13333333333333,11.8614528542925,22.0505565178539,1.63952842550292,-0.0839083207404507,3,13.9133680555556,29.9
3.16666666666667,11.8621124354039,22.1037726504406,1.55398858853001,-0.0855398369729168,3,13.9133680555556,29.9
3.2,11.8627413948214,22.1542254558841,1.4737069942469,-0.0802815942831061,3,13.9133680555556,29.9
3.23333333333333,11.863340466801,22.2020311884017,1.39514407906096,-0.0785629151859373,3,13.9133680555556,29.9
3.26666666666667,11.8639098255087,22.247246312958,1.31825447702358,-0.0768896020373813,3,13.9133680555556,29.9
3.3,11.8644496800294,22.2899258273441,1.24298580605726,-0.0752686709663195,3,13.9133680555556,29.9
3.33333333333333,11.864960266279,22.3301226779027,1.16927610964351,-0.0737096964137536,3,13.9133680555556,29.9
3.36666666666667,11.8654418480064,22.3678881266909,1.09708818015257,-0.0721879294909358,3,13.9133680555556,29.9
3.4,11.8658947266074,22.4032730113792,1.02644196005864,-0.0706462200939337,3,13.9133680555556,29.9
3.43333333333333,11.8663192586109,22.4363297483813,0.957398571393349,-0.0690433886652901,3,13.9133680555556,29.9
3.46666666666667,11.8667158544859,22.4671125623922,0.890003018324998,-0.0673955530683509,3,13.9133680555556,29.9
3.5,11.8670849644458,22.4956764933293,0.824241318805981,-0.065761699519017,3,13.9133680555556,29.9
3.53333333333333,11.8674270410087,22.5220742427645,0.760005123944205,-0.0642361948617757,3,13.9133680555556,29.9
3.56666666666667,11.8677425231943,22.5463550685165,0.697203126923328,-0.0628019970208774,3,13.9133680555556,29.9
3.6,11.8680318411637,22.5685655780763,0.635769769126939,-0.061433357796389,3,13.9133680555556,29.9
3.63333333333333,11.8682954292441,22.5887512573751,0.575709707329491,-0.0600600617974479,3,13.9133680555556,29.9
3.66666666666667,11.868533743532,22.6069583630231,0.517048661321994,-0.0586610460074971,3,13.9133680555556,29.9
3.7,11.8687472574883,22.6232337180535,0.459795593402354,-0.0572530679196398,3,13.9133680555556,29.9
3.73333333333333,11.8689364544643,22.6376241829179,0.403941140417414,-0.0558544529849402,3,13.9133680555556,29.9
3.76666666666667,11.8691018151979,22.6501756358789,0.349435165198042,-0.0545059752193715,3,13.9133680555556,29.9
3.8,11.8692438062914,22.660932027998,0.296218983291385,-0.0532161819066567,3,13.9133680555556,29.9
3.83333333333333,11.8693628799462,22.6699354624251,0.244240238672856,-0.0519787446185291,3,13.9133680555556,29.9
3.86666666666667,11.8694594752938,22.6772264133377,0.193458815308533,-0.0507814233643235,3,13.9133680555556,29.9
3.9,11.8695340360602,22.6828454358339,0.143933935992732,-0.0495248793158008,3,13.9133680555556,29.9
3.93333333333333,11.8695870409398,22.6868360357791,0.0957569864017115,-0.0481769495910206,3,13.9133680555556,29.9
3.96666666666667,11.8696189966152,22.6892441326277,0.0489828370938752,-0.0467741493078363,3,13.9133680555556,29.9
4,11.8696304244119,22.6901169647336,0.00366208619135435,-0.0453207509025208,3,13.9133680555556,29.9
4.03333333333333,11.8696233472287,22.6896389742216,0.0203061127662257,0.0166440265748713,5,13.9133680555556,29.9
4.06666666666667,11.8696104807282,22.6889623656189,0.000564426884890617,-0.0197416858813351,3,13.9133680555556,29.9
4.1,11.8696104807282,22.6889623656189,0.000889658555301022,0.000325231670410405,5,13.9133680555556,29.9
4.13333333333333,11.8696104807282,22.6889623656189,0.00138113767686938,0.000491479121568354,5,13.9133680555556,29.9
4.16666666666667,11.8696104807282,22.6889623656189,0.00198990173068166,0.000608764053812282,5,13.9133680555556,29.9
4.2,11.8696104807282,22.6889623656189,0.00265166698608423,0.000661765255402569,5,13.9133680555556,29.9
4.23333333333333,11.8696104807282,22.6889623656189,0.00329614858828559,0.000644481602201362,5,13.9133680555556,29.9
4.26666666666667,11.8696104807282,22.6889623656189,0.00395326987868388,0.000657121290398289,5,13.9133680555556,29.9
4.3,11.8696165620681,22.6895177375234,0.0313137450515647,0.0273604751728809,4,13.9133680555556,29.9
4.33333333333333,11.8696359052874,22.6912841707067,0.075148444342203,0.0438346992906383,4,13.9133680555556,29.9
4.36666666666667,11.86967249736,22.694624486946,0.125488772516188,0.0503403281739851,4,13.9133680555556,29.9
4.4,11.8697273919605,22.6996312003817,0.175023538449233,0.0495347659330448,4,13.9133680555556,29.9
4.43333333333333,11.8698003261117,22.7062727977221,0.223519558333375,0.0484960198841421,4,13.9133680555556,29.9
4.46666666666667,11.8698910285794,22.7145120884793,0.27085291184563,0.0473333535122554,4,13.9133680555556,29.9
4.5,11.8699992758661,22.7243104358009,0.317047868361322,0.0461949565156911,4,13.9133680555556,29.9
4.53333333333333,11.8701249319305,22.7356307967483,0.362156202035439,0.0451083336741173,4,13.9133680555556,29.9
4.56666666666667,11.8702679504463,22.7484376724635,0.40622025137806,0.044064049342621,4,13.9133680555556,29.9
4.6,11.8704283704292,22.7626968162163,0.449275193446416,0.043054942068356,4,13.9133680555556,29.9
4.63333333333333,11.8706063079805,22.7783749725364,0.49134476494986,0.042069571503444,4,13.9133680555556,29.9
4.66666666666667,11.8708019390275,22.795439185179,0.532425968155955,0.041081203206095,4,13.9133680555556,29.9
4.7,11.8710154802354,22.8138563170638,0.572515973572433,0.0400900054164786,4,13.9133680555556,29.9
4.73333333333333,11.8712471738056,22.8335932667611,0.611619175627925,0.0391032020554911,4,13.9133680555556,29.9
4.76666666666667,11.871497269259,22.8546171873364,0.649745066045915,0.0381258904179904,4,13.9133680555556,29.9
4.8,11.8717660024463,22.8768956426435,0.686906904139409,0.0371618380934944,4,13.9133680555556,29.9
4.83333333333333,11.8720535752313,22.9003969098914,0.723139158149742,0.036232254010333,4,13.9133680555556,29.9
4.86666666666667,11.8723601443256,22.9250910784456,0.758506788202298,0.0353676300525557,4,13.9133680555556,29.9
4.9,11.8726858026265,22.9509503021514,0.793064945661593,0.0345581574592951,4,13.9133680555556,29.9
4.93333333333333,11.8730305566005,22.9779484106413,0.8268585462269,0.0337936005653064,4,13.9133680555556,29.9
4.96666666666667,11.8733943234958,23.0060619243624,0.860077818914275,0.033219272687375,4,13.9133680555556,29.9
5,11.8737770833822,23.0352844806299,0.893627366269217,0.0335495473549422,4,13.9133680555556,29.9
5.03333333333333,11.8741791721683,23.0656530745882,0.929159739055979,0.0355323727867618,4,13.9133680555556,29.9
5.06666666666667,11.8746014831072,23.0972649109762,0.968515145333014,0.0393554062770357,4,13.9133680555556,29.9
5.1,11.8750454641246,23.1302748128975,1.01328881814861,0.0447736728155977,4,13.9133680555556,29.9
5.13333333333333,11.8755130522047,23.1648860577622,1.06480602549378,0.0515172073451644,4,13.9133680555556,29.9
5.16666666666667,11.8760066378593,23.2013430598272,1.12421912611471,0.0594131006209313,4,13.9133680555556,29.9
5.2,11.8765290481488,23.239924922936,1.19242636264807,0.0682072365333584,4,13.9133680555556,29.9
5.23333333333333,11.8770834985275,23.28093556582,1.27006051258675,0.0776341499386812,4,13.9133680555556,29.9
5.26666666666667,11.8776736091911,23.3246989970036,1.3576827441443,0.0876222315575557,4,13.9133680555556,29.9
5.3,11.8783034084058,23.3715531528939,1.45553735564424,0.0978546114999355,4,13.9133680555556,29.9
5.33333333333333,11.8789772819297,23.4218391622968,1.56358741872537,0.108050063081135,4,13.9133680555556,29.9
5.36666666666667,11.8796999259667,23.475891696715,1.6814555991752,0.117868180449828,4,13.9133680555556,29.9
5.4,11.8804762528776,23.534026789784,1.8084359086156,0.126980309440401,4,13.9133680555556,29.9
5.43333333333333,11.881311321963,23.5965342271142,1.94367398420929,0.135238075593685,4,13.9133680555556,29.9
5.46666666666667,11.8822102773889,23.6636736656146,2.0862229504843,0.142548966275016,4,13.9133680555556,29.9
5.5,11.8831782588272,23.7356719556573,2.23506053410296,0.148837583618659,4,13.9133680555556,29.9
5.53333333333333,11.8842202656667,23.8127200404047,2.38904122964302,0.15398069554006,4,13.9133680555556,29.9
5.56666666666667,11.8853409843844,23.8949697161807,2.5470136601339,0.157972430490876,4,13.9133680555556,29.9
5.6,11.886544647084,23.9825374025773,2.70801204994648,0.160998389812579,4,13.9133680555556,29.9
5.63333333333333,11.8878348045544,24.0755103275708,2.87124460054892,0.16323255060244,4,13.9133680555556,29.9
5.66666666666667,11.8892142441964,24.1739514478844,3.03603381531814,0.164789214769226,4,13.9133680555556,29.9
5.7,11.8906850626355,24.2779029405766,3.20183910214606,0.165805286827912,4,13.9133680555556,29.9
5.73333333333333,11.892248841843,24.3873927282312,3.36831745518733,0.166478353041272,4,13.9133680555556,29.9
5.76666666666667,11.8939068248063,24.5024379005682,3.53515454781598,0.166837092628653,4,13.9133680555556,29.9
5.8,11.8956600714361,24.6230457785511,3.70208459301241,0.166930045196425,4,13.9133680555556,29.9
5.83333333333333,11.8975096108432,24.7492158394447,3.86890119302865,0.166816600016245,4,13.9133680555556,29.9
5.86666666666667,11.899456558018,24.8809412084196,4.03541159351956,0.16651040049091,4,13.9133680555556,29.9
5.9,11.9015021540074,25.0182071490594,4.20134120748374,0.165929613964175,4,13.9133680555556,29.9
5.93333333333333,11.9036477766265,25.1609902146922,4.36645790421941,0.165116696735673,4,13.9133680555556,29.9
5.96666666666667,11.9058949522245,25.309259870375,4.53055972492978,0.16410182071037,4,13.9133680555556,29.9
6,11.9082453362359,25.4629793546852,4.69348219535958,0.162922470429801,4,13.9133680555556,29.9
6.03333333333333,11.9107006917157,25.6221072435627,4.85510670332092,0.161624507961337,4,13.9133680555556,29.9
6.06666666666667,11.9132628568047,25.7865984197254,5.01530934582719,0.160202642506269,4,13.9133680555556,29.9
6.1,11.9159336692648,25.9564017886977,5.17386989346334,0.158560547636158,4,13.9133680555556,29.9
6.13333333333333,11.9187149274388,26.1314602777853,5.33067378331255,0.156803889849209,4,13.9133680555556,29.9
6.16666666666667,11.9216084166035,26.3117149242611,5.48570962664748,0.155035843334926,4,13.9133680555556,29.9
6.2,11.9246159203201,26.4971072023726,5.63900875776791,0.153299131120432,4,13.9133680555556,29.9
6.23333333333333,11.9277392226514,26.6875800872378,5.79063067089975,0.151621913131835,4,13.9133680555556,29.9
6.26666666666667,11.9309801172618,26.8830790548819,5.94066576265938,0.150035091759634,4,13.9133680555556,29.9
