Time,x_ego,y_ego,velocity,acceleration,action,x_ped,y_ped
0,11.8,8.9,7,0,1,15.5,29.9
0.0333333333333333,11.8,9.13327037939431,6.99615577953002,-0.00384422046998356,1,15.3694444444444,29.9
0.0666666666666667,11.8,9.36640659881126,6.99196947109348,-0.00418630843653833,1,15.2444444444444,29.9
0.1,11.8,9.59940075527911,6.98769498718995,-0.00427448390352669,1,15.125,29.9
0.133333333333333,11.8,9.83225378528415,6.9834976545359,-0.00419733265404787,1,15.0111111111111,29.9
0.166666666666667,11.8,10.0649678802301,6.97935585456763,-0.00414179996826913,1,14.9027777777778,29.9
0.2,11.8,10.2975446186632,6.97525409491249,-0.00410175965514537,1,14.8,29.9
0.233333333333333,11.8,10.5299851399444,6.97118127319767,-0.00407282171482137,1,14.7027777777778,29.9
0.266666666666667,11.8,10.7622902687052,6.96712943294736,-0.00405184025031069,1,14.6111111111111,29.9
0.3,11.8,10.9944606040335,6.96309287213007,-0.00403656081728965,1,14.525,29.9
0.333333333333333,11.8,11.2264965833863,6.95906750439986,-0.00402536773020401,1,14.4444444444444,29.9
0.366666666666667,11.8000033173534,11.4583985283856,6.95505040685413,-0.0040170975457352,1,14.3694444444444,29.9
0.4,11.8000240843682,11.6901666775002,6.95103952519728,-0.0040108816568436,1,14.3,29.9
0.433333333333333,11.8000735625601,11.9218012088848,6.94703339772172,-0.0040061274755665,1,14.2361111111111,29.9
0.466666666666667,11.8001576044427,12.1533022564725,6.94303093659937,-0.00400246112234637,1,14.1777777777778,29.9
0.5,11.80027825557,12.3846699219841,6.93903132357975,-0.0039996130196176,1,14.125,29.9
0.533333333333333,11.8004351969934,12.6159042841912,6.9350339564608,-0.00399736711895748,1,14.0777777777778,29.9
0.566666666666667,11.8006268550789,12.8470054059691,6.93103840726178,-0.00399554919901401,1,14.0361111111111,29.9
0.6,11.8008511394117,13.0779733394487,6.92704438110021,-0.00399402616157118,1,14,29.9
0.633333333333333,11.8011058595533,13.3088081295994,6.92305167798921,-0.00399270311099809,1,13.9694444444444,29.9
0.666666666666667,11.8013889154683,13.5395098166215,6.91906016180577,-0.0039915161834454,1,13.9444444444444,29.9
0.7,11.8016983618813,13.7700784374976,6.91506973811697,-0.00399042368879865,1,13.925,29.9
0.733333333333333,11.802032426514,14.000514026978,6.91108033989047,-0.00398939822649869,1,13.9111111111111,29.9
0.766666666666667,11.8023895301764,14.2308166181881,6.90709191888977,-0.00398842100070151,1,13.9027777777778,29.9
0.8,11.8027683250991,14.4609862429836,6.90310444054405,-0.00398747834571545,1,13.9,29.9
0.833333333333333,11.8031677446798,14.6910229321422,6.89911788063247,-0.00398655991158137,1,13.9,29.9
0.866666666666667,11.8035870463445,14.920926715465,6.89513222277462,-0.00398565785785454,1,13.9,29.9
0.9,11.8040258288523,15.1506976218419,6.89114745626451,-0.00398476651010515,1,13.9,29.9
0.933333333333333,11.8044840127728,15.3803356793255,6.88716357414947,-0.0039838821150413,1,13.9,29.9
0.966666666666667,11.8049617836232,15.6098409152366,6.88318057162697,-0.00398300252250561,1,13.9,29.9
1,11.8054591926632,15.8390109873312,6.86705653372662,-0.01612403790035,1,13.9,29.9
1.03333333333333,11.8059754827507,16.0671247666493,6.81980633881884,-0.0472501949077708,3,13.9,29.9
1.06666666666667,11.8065086680025,16.2928563081552,6.72412613084145,-0.0956802079773915,3,13.9,29.9
1.1,11.8070568592152,16.5151679825101,6.61461780623229,-0.109508324609163,3,13.9,29.9
1.13333333333333,11.8076190951657,16.7337718463156,6.50166113161837,-0.11295667461392,3,13.9,29.9
1.16666666666667,11.8081945856008,16.9486398119952,6.39046802865106,-0.111193102967306,3,13.9,29.9
1.2,11.8087825276973,17.1598593695802,6.28276150523843,-0.107706523412637,3,13.9,29.9
1.23333333333333,11.809382084362,17.3675754303728,6.18026383016706,-0.102497675071363,3,13.9,29.9
1.26666666666667,11.8099923506744,17.5719325406725,6.08123056981386,-0.0990332603532016,3,13.9,29.9
1.3,11.810612163779,17.772960065181,5.98049472611164,-0.100735843702226,3,13.9,29.9
1.33333333333333,11.8112402068132,17.9706012616357,5.87805611319958,-0.10243861291206,3,13.9,29.9
1.36666666666667,11.8118750880698,18.1647416250433,5.77044863133314,-0.107607481866442,3,13.9,29.9
1.4,11.8125149574215,18.3550646577101,5.64901863494971,-0.121429996383428,3,13.9,29.9
1.43333333333333,11.8131578301799,18.5411961341258,5.51895600711029,-0.13006262783942,3,13.9,29.9
1.46666666666667,11.8138019267673,18.7228483434799,5.38026218922439,-0.138693817885899,3,13.9,29.9
1.5,11.8144455798719,18.8997913836187,5.23640470314431,-0.143857486080081,3,13.9,29.9
1.53333333333333,11.8150873878045,19.0719109216597,5.09085066127012,-0.145554041874192,3,13.9,29.9
1.56666666666667,11.8157261400016,19.239179114811,4.94532274917841,-0.145527912091701,3,13.9,29.9
1.6,11.8163606604842,19.4015968307437,4.79982115609584,-0.145501593082578,3,13.9,29.9
1.63333333333333,11.8169897377144,19.5591649389206,4.65434588470607,-0.145475271389763,3,13.9,29.9
1.66666666666667,11.8176123335486,19.7119417120086,4.51234106139588,-0.14200482331019,3,13.9,29.9
1.7,11.8182275228854,19.8600134947739,4.37202004342255,-0.140321017973338,3,13.9,29.9
1.73333333333333,11.8188343270947,20.003434655955,4.2333131823723,-0.138706861050247,3,13.9,29.9
1.76666666666667,11.819431638566,20.1422023796279,4.09282078469605,-0.140492397676245,3,13.9,29.9
1.8,11.8200184274749,20.2763151200238,3.95401923494539,-0.138801549750664,3,13.9,29.9
1.83333333333333,11.8205937355284,20.4057722366985,3.8134869151122,-0.140532319833192,3,13.8991319444444,29.9
1.86666666666667,11.8211564600678,20.5305159691177,3.67121845821673,-0.14226845689547,3,13.8965277777778,29.9
1.9,11.8217056468888,20.6505177278417,3.52896965384148,-0.142248804375248,3,13.8921875,29.9
1.93333333333333,11.822240261345,20.7657209183775,3.38330460559047,-0.145665048251015,3,13.8861111111111,29.9
1.96666666666667,11.8227592792044,20.8760691906762,3.23767394440153,-0.145630661188935,3,13.8782986111111,29.9
2,11.8232617808611,20.981534709616,3.090338120409,-0.147335823992532,3,13.86875,29.9
2.03333333333333,11.8237468428994,21.0820897658865,2.9430443582596,-0.147293762149399,3,13.8574652777778,29.9
2.06666666666667,11.8242136544718,21.177735804868,2.79579488899392,-0.147249469265679,3,13.8444444444444,29.9
2.1,11.8246615316856,21.2685033976427,2.65033516484263,-0.145459724151293,3,13.8296875,29.9
2.13333333333333,11.8250896967271,21.3543940851759,2.50317808468804,-0.147157080154585,3,13.8131944444444,29.9
2.16666666666667,11.8254975287503,21.4354381353274,2.35953437401681,-0.143643710671232,3,13.7949652777778,29.9
2.2,11.82588459112,21.511694928759,2.21594369016399,-0.143590683852824,3,13.775,29.9
2.23333333333333,11.8262504377579,21.5832000271218,2.07463847244969,-0.141305217714301,3,13.7532986111111,29.9
2.26666666666667,11.826594859538,21.6500248924826,1.93531329809085,-0.139325174358836,3,13.7298611111111,29.9
2.3,11.8269177581574,21.7122480717236,1.79857829100838,-0.136735007082468,3,13.7046875,29.9
2.33333333333333,11.8272191503741,21.7699585375043,1.66454385451166,-0.134034436496719,3,13.6777777777778,29.9
2.36666666666667,11.8274991146202,21.8232456875648,1.53317450708123,-0.131369347430431,3,13.6491319444444,29.9
2.4,11.8277579021022,21.8722271610817,1.40619104373954,-0.126983463341688,3,13.61875,29.9
2.43333333333333,11.8279958008819,21.9170192629914,1.28180283969228,-0.124388204047265,3,13.5866319444444,29.9
2.46666666666667,11.8282131276872,21.9577363223228,1.16167140160821,-0.120131438084068,3,13.5527777777778,29.9
2.5,11.8284102206488,21.9944903908823,1.0440192496009,-0.117652152007307,3,13.5171875,29.9
2.53333333333333,11.8285873191509,22.0273649604478,0.928919563081086,-0.115099686519818,3,13.4798611111111,29.9
2.56666666666667,11.8287447006865,22.0564468748233,0.816461531594944,-0.112458031486142,3,13.4407986111111,29.9
2.6,11.8288826639863,22.0818231568968,0.706554965959881,-0.109906565635063,3,13.4,29.9
2.63333333333333,11.8290016354761,22.1036051832363,0.600793464200618,-0.105761501759263,3,13.3574652777778,29.9
2.66666666666667,11.8291020480924,22.1219019638039,0.497450252879598,-0.10334321132102,3,13.3131944444444,29.9
2.7,11.8291842248535,22.1367946311382,0.396551730819102,-0.100898522060497,3,13.2671875,29.9
2.73333333333333,11.8292487617022,22.1484218227303,0.301512761540855,-0.095038969278247,3,13.2194444444444,29.9
2.76666666666667,11.8292963845194,22.1569482458135,0.210499150135537,-0.0910136114053173,3,13.1699652777778,29.9
2.8,11.8293276839,22.1625064111868,0.123462046603677,-0.0870371035318598,3,13.11875,29.9
2.83333333333333,11.8293433970168,22.1652596241791,0.0423337928591567,-0.0811282537445208,3,13.0657986111111,29.9
2.86666666666667,11.8293453698534,22.1656150643045,0.00345254312662584,-0.0388812497325308,3,13.0111111111111,29.9
2.9,11.8293418703417,22.1653966141962,0.00745840727901182,0.00400586415238598,5,12.9546875,29.9
2.93333333333333,11.8293355089995,22.1651781770402,0.00393330995431854,-0.00352509732469327,5,12.8965277777778,29.9
2.96666666666667,11.8293355089995,22.1651781770402,0.00454351299760622,0.000610203043287673,5,12.8366319444444,29.9
3,11.8293355089995,22.1651781770402,0.0053165613483239,0.000773048350717683,5,12.775,29.9
3.03333333333333,11.8293355089995,22.1651781770402,0.00615304990409733,0.000836488555773432,5,12.7116319444444,29.9
3.06666666666667,11.8293355089995,22.1651781770402,0.00694263649352951,0.000789586589432175,5,12.6465277777778,29.9
3.1,11.8293355089995,22.1651781770402,0.00757871605418507,0.000636079560655558,5,12.5796875,29.9
3.13333333333333,11.8293355089995,22.1651781770402,0.00797043893019531,0.000391722876010241,5,12.5111111111111,29.9
3.16666666666667,11.8293355089995,22.1651781770402,0.00805145061512542,8.1011684930115e-05,5,12.4407986111111,29.9
3.2,11.8293355089995,22.1651781770402,0.00778510139021606,-0.000266349224909362,5,12.36875,29.9
3.23333333333333,11.8293355089995,22.1651781770402,0.00716620300484799,-0.000618898385368068,5,12.2949652777778,29.9
3.26666666666667,11.8293355089995,22.1651781770402,0.00621967831455129,-0.0009465246902967,5,12.2194444444444,29.9
3.3,11.8293355089995,22.1651781770402,0.00499664842729329,-0.001223029887258,5,12.1421875,29.9
3.33333333333333,11.8293355089995,22.1651781770402,0.00356862700534176,-0.00142802142195153,5,12.0631944444444,29.9
3.36666666666667,11.8293355089995,22.1651781770402,0.00202054543158712,-0.00154808157375463,5,11.9824652777778,29.9
3.4,11.8293355089995,22.1651781770402,0.000443322834674636,-0.00157722259691249,5,11.9,29.9
3.43333333333333,11.8293355089995,22.1651781770402,0.00107336780555682,0.000630044970882188,5,11.8157986111111,29.9
3.46666666666667,11.8293355089995,22.1651781770402,0.00244758922971332,0.0013742214241565,5,11.7298611111111,29.9
3.5,11.8293355089995,22.1651781770402,0.00361046635987202,0.0011628771301587,5,11.6421875,29.9
3.53333333333333,11.8293355089995,22.1651781770402,0.00451007329924356,0.000899606939371538,5,11.5527777777778,29.9
3.56666666666667,11.8293355089995,22.1651781770402,0.00511374759776514,0.000603674298521578,5,11.4616319444444,29.9
3.6,11.8293355089995,22.1651781770402,0.00540883173186114,0.000295084134096001,5,11.36875,29.9
3.63333333333333,11.8293355089995,22.1651781770402,0.00540195690634044,-6.87482552069133e-06,5,11.2741319444444,29.9
3.66666666666667,11.8293355089995,22.1651781770402,0.00511707569553669,-0.000284881210803756,5,11.1777777777778,29.9
3.7,11.8293355089995,22.1651781770402,0.00459251453635691,-0.000524561159179779,5,11.0796875,29.9
3.73333333333333,11.8293355089995,22.1651781770402,0.00387735386655839,-0.000715160669798518,5,10.9798611111111,29.9
3.76666666666667,11.8293355089995,22.1651781770402,0.00302745402570921,-0.000849899840849184,5,10.8782986111111,29.9
3.8,11.8293355089995,22.1651781770402,0.00210143182511193,-0.000926022200597277,5,10.775,29.9
3.83333333333333,11.8293355089995,22.1651781770402,0.00115686008057918,-0.000944571744532747,5,10.6699652777778,29.9
3.86666666666667,11.8293355089995,22.1651781770402,0.000246915271212357,-0.000909944809366827,5,10.5631944444444,29.9
3.9,11.8293355089995,22.1651781770402,0.000582357974768394,0.000335442703556036,5,10.4546875,29.9
3.93333333333333,11.8293355089995,22.1651781770402,0.00129405756661866,0.000711699591850261,5,10.3444444444444,29.9
3.96666666666667,11.8293355089995,22.1651781770402,0.00186166208155594,0.00056760451493728,5,10.2324652777778,29.9
4,11.8293355089995,22.1651781770402,0.00226950446668894,0.000407842385133006,5,10.11875,29.9
4.03333333333333,11.8293355089995,22.1651781770402,0.00251253774249496,0.000243033275806019,5,10.0032986111111,29.9
4.06666666666667,11.8293355089995,22.1651781770402,0.00259548768715487,8.29499446599086e-05,5,9.88611111111111,29.9
4.1,11.8293355089995,22.1651781770402,0.00253151502739118,-6.39726597636931e-05,5,9.7671875,29.9
4.13333333333333,11.8293355089995,22.1651781770402,0.00234052585319385,-0.000190989174197325,5,9.64652777777778,29.9
4.16666666666667,11.8293355089995,22.1651781770402,0.00204727425275999,-0.000293251600433858,5,9.52413194444444,29.9
4.2,11.8293355089995,22.1651781770402,0.00167939662404978,-0.000367877628710217,5,9.4,29.9
4.23333333333333,11.8293355089995,22.1651781770402,0.00126550434296935,-0.000413892281080426,5,9.27413194444444,29.9
4.26666666666667,11.8293355089995,22.1651781770402,0.00083344235429396,-0.00043206198867539,5,9.14652777777778,29.9
4.3,11.8293355089995,22.1651781770402,0.000408797847905958,-0.000424644506388001,5,9.0171875,29.9
4.33333333333333,11.8293355089995,22.1651781770402,1.37175333816381e-05,-0.00039508031452432,5,8.88611111111111,29.9
4.36666666666667,11.8293355089995,22.1651781770402,0.000333933960958626,0.000320216427576988,5,8.75329861111111,29.9
4.4,11.8293355089995,22.1651781770402,0.000621066692387076,0.00028713273142845,5,8.61875,29.9
4.43333333333333,11.8293355089995,22.1651781770402,0.000839523101448029,0.000218456409060953,5,8.48246527777778,29.9
4.46666666666667,11.8293355089995,22.1651781770402,0.000887320730693927,4.7797629245898e-05,5,8.34444444444444,29.9
4.5,11.8293373019499,22.1655742623622,0.0203099858382424,0.0194226651075485,4,8.2046875,29.9
4.53333333333333,11.8293427984272,22.1667884901121,0.0525065635375612,0.0321965776993188,4,8.06319444444444,29.9
4.56666666666667,11.8293543024107,22.169329152012,0.099838414923371,0.0473318513858097,4,7.91996527777778,29.9
4.6,11.8293731735217,22.1734943312659,0.149933484542111,0.0500950696187405,4,7.775,29.9
4.63333333333333,11.8293995696457,22.179313650022,0.199059884203076,0.0491263996609642,4,7.62829861111111,29.9
4.66666666666667,11.8294333737223,22.1867517479662,0.247050329486414,0.0479904452833386,4,7.47986111111111,29.9
4.7,11.8294744759291,22.1957696303169,0.29386540474147,0.0468150752550563,4,7.3296875,29.9
4.73333333333333,11.8295227965303,22.2063289968901,0.339558987025153,0.0456935822836823,4,7.17777777777778,29.9
4.76666666666667,11.8295782927363,22.2183933434257,0.384178994103599,0.0446200070784464,4,7.02413194444444,29.9
4.8,11.8296409575325,22.2319276266002,0.427764396036374,0.0435854019327745,4,6.86875,29.9
4.83333333333333,11.8297108171414,22.2468979918627,0.470346984323688,0.0425825882873146,4,6.71163194444444,29.9
4.86666666666667,11.8297879260316,22.2632713383097,0.511937155217581,0.041590170893893,4,6.55277777777778,29.9
4.9,11.8298723586654,22.2810145385641,0.552530179249168,0.040593024031587,4,6.3921875,29.9
4.93333333333333,11.8299642029556,22.3000943892207,0.592128664777646,0.0395984855284774,4,6.22986111111111,29.9
4.96666666666667,11.8300635536835,22.3204778558587,0.630741485132452,0.038612820354806,4,6.06579861111111,29.9
5,11.8301705045837,22.3421322534092,0.668381765407604,0.0376402802751526,4,5.9,29.9
5.03333333333333,11.8302851396835,22.3650253977632,0.705069591520824,0.0366878261132199,4,5.9,29.9
5.06666666666667,11.8304075271006,22.3891263244194,0.740861104599704,0.0357915130788797,4,5.9,29.9
5.1,11.8305377141141,22.4144061896519,0.775818421519385,0.0349573169196807,4,5.9,29.9
5.13333333333333,11.8306757179875,22.4408380191599,0.809991246411755,0.0341728248923707,4,5.9,29.9
5.16666666666667,11.8308215177958,22.4683963531084,0.843420143218886,0.033428896807131,4,5.9,29.9
5.2,11.8309750485717,22.4970569819796,0.876138945540193,0.032718802321307,4,5.9,29.9
5.23333333333333,11.8311361980069,22.5267967485827,0.908176645653946,0.0320377001137525,4,5.9,29.9
5.26666666666667,11.8313048050636,22.5575932249086,0.939539631283732,0.0313629856297859,4,5.9,29.9
5.3,11.8314806646059,22.5894251279397,0.970377336891448,0.0308377056077164,4,5.9,29.9
5.33333333333333,11.831663592888,22.6222852504675,1.00137648146972,0.0309991445782739,4,5.9,29.9
5.36666666666667,11.8318535052783,22.6561952287489,1.03356330254821,0.0321868210784881,4,5.9,29.9
5.4,11.8320504755601,22.6912154945032,1.06822033544063,0.0346570328924196,4,5.9,29.9
5.43333333333333,11.8322547835187,22.7274519321668,1.10676916080431,0.038548825363677,4,5.9,29.9
5.46666666666667,11.8324669367187,22.7650563605759,1.15048159578619,0.0437124349818858,4,5.9,29.9
5.5,11.8326876480832,22.804217163593,1.2002806766937,0.0497990809075031,4,5.9,29.9
5.53333333333333,11.8329178095624,22.8451488931333,1.25683173159072,0.0565510548970285,4,5.9,29.9
5.56666666666667,11.8331584796143,22.8880847934675,1.32059108151811,0.0637593499273887,4,5.9,29.9
5.6,11.833410869554,22.9332693270265,1.39176288813584,0.0711718066177296,4,5.9,29.9
5.63333333333333,11.833676321394,22.9809494970119,1.47031549327093,0.0785526051350898,4,5.9,29.9
5.66666666666667,11.8339562924139,23.0313685539948,1.55605272380441,0.0857372305334738,4,5.9,29.9
5.7,11.8342523347856,23.0847600936667,1.64859330564655,0.092540581842141,4,5.9,29.9
5.73333333333333,11.8345660670335,23.1413423233774,1.74739614522238,0.0988028395758294,4,5.9,29.9
5.76666666666667,11.8348991377752,23.2013129568737,1.85178151560713,0.104385370384754,4,5.9,29.9
5.8,11.8352531810173,23.2648447674243,1.96092453858976,0.109143022982632,4,5.9,29.9
5.83333333333333,11.8356297641872,23.3320819389505,2.07397589903151,0.113051360441746,4,5.9,29.9
5.86666666666667,11.8360303555258,23.4031421195334,2.19019615898995,0.116220259958439,4,5.9,29.9
5.9,11.8364562954128,23.4781201001409,2.30895097504708,0.118754816057136,4,5.9,29.9
5.93333333333333,11.8369087705886,23.5570917057111,2.42975713741574,0.120806162368652,4,5.9,29.9
5.96666666666667,11.8373888108604,23.6401205239659,2.55235694677291,0.122599809357171,4,5.9,29.9
6,11.837897286364,23.7272638931992,2.67662239159182,0.124265444818913,4,5.9,29.9
6.03333333333333,11.8384348944685,23.8185768201821,2.8025291021248,0.12590671053298,4,5.9,29.9
6.06666666666667,11.8390021861574,23.9141131058714,2.93000775458447,0.127478652459666,4,5.9,29.9
6.1,11.8395996067315,24.0139227424658,3.05890060054652,0.128892845962053,4,5.9,29.9
6.13333333333333,11.8402275415221,24.1180491693133,3.18897563759601,0.130075037049495,4,5.9,29.9
6.16666666666667,11.8408863599592,24.2265271510982,3.31994832070033,0.130972683104313,4,5.9,29.9
6.2,11.8415764510026,24.3393813980536,3.45150188282123,0.1315535621209,4,5.9,29.9
6.23333333333333,11.8422982412188,24.456625080683,3.58324646498555,0.13174458216432,4,5.9,29.9
6.26666666666667,11.8430521896291,24.5782573023067,3.7147573255557,0.131510860570158,4,5.9,29.9
6.3,11.8438387877768,24.7042643572841,3.84569387947875,0.130936553923049,4,5.9,29.9
6.33333333333333,11.844658557412,24.8346224757,3.97578983957778,0.130095960099027,4,5.9,29.9
6.36666666666667,11.8455120399449,24.9693000343157,4.10483798065054,0.129048141072759,4,5.9,29.9
6.4,11.8463997826108,25.1082593198589,4.23267833440134,0.127840353750803,4,5.9,29.9
6.43333333333333,11.8473223233353,25.2514576179021,4.35915147922764,0.126473144826302,4,5.9,29.9
6.46666666666667,11.8482801636409,25.398845481071,4.48402757083382,0.124876091606173,4,5.9,29.9
6.5,11.8492737579676,25.5503670695332,4.60717064952395,0.123143078690135,4,5.9,29.9
6.53333333333333,11.8503035275511,25.7059639040906,4.72855517812404,0.12138452860009,4,5.9,29.9
6.56666666666667,11.8513698765756,25.8655782112325,4.84824300243829,0.119687824314246,4,5.9,29.9
