Time,x_ego,y_ego,velocity,acceleration,action,x_ped,y_ped
0,11.8,8.9,5,0,1,15.5,29.9
0.0333333333333333,11.8000054689588,9.06660768883178,4.99642263600772,-0.00357736399227804,1,15.5,29.9
0.0666666666666667,11.8000405538994,9.23309265265766,4.99264782867991,-0.00377480732780988,1,15.5,29.9
0.1,11.8001261188274,9.39944929261209,4.98873227005768,-0.0039155586222348,1,15.5,29.9
0.133333333333333,11.8002741845926,9.56567360458295,4.98471646188001,-0.00401580817766867,1,15.5,29.9
0.166666666666667,11.8004894577092,9.73176272559723,4.9806292960148,-0.00408716586521063,1,15.5,29.9
0.2,11.8007712067974,9.89771462618854,4.97649245230843,-0.00413684370636336,1,15.5,29.9
0.233333333333333,11.8011150943003,10.063527933545,4.97232330203018,-0.00416915027825837,1,15.5,29.9
0.266666666666667,11.8015141450278,10.2292017975825,4.96813518775111,-0.00418811427906274,1,15.5,29.9
0.3,11.8019579032929,10.3947357688948,4.96393797024801,-0.00419721750310309,1,15.5,29.9
0.333333333333333,11.8024341211253,10.5601296903503,4.9597385610623,-0.00419940918571449,1,15.5,29.9
0.366666666666667,11.8029323677768,10.7253835936107,4.9555413731636,-0.00419718789869528,1,15.5,29.9
0.4,11.8034448497791,10.8904976222424,4.95134906508837,-0.00419230807522997,1,15.5,29.9
0.433333333333333,11.803966272606,11.0554719822955,4.94716315798665,-0.00418590710172229,1,15.5,29.9
0.466666666666667,11.8044935808405,11.2203069114928,4.94298447822286,-0.00417867976378528,1,15.5,29.9
0.5,11.8050256551619,11.3850026646105,4.93881364864241,-0.00417082958044901,1,15.5,29.9
0.533333333333333,11.8055629936199,11.5495595096988,4.93465109941719,-0.00416254922522263,1,15.5,29.9
0.566666666666667,11.8061073747027,11.7139777189077,4.9304969199825,-0.0041541794346891,1,15.5,29.9
0.6,11.8066614924484,11.8782575603251,4.92635100021299,-0.00414591976950884,1,15.5,29.9
0.633333333333333,11.8072285637936,12.0423992942621,4.92221313550658,-0.00413786470641231,1,15.5,29.9
0.666666666666667,11.807811926253,12.206403172305,4.91808308703215,-0.00413004847442977,1,15.5,29.9
0.7,11.808414660277,12.3702694380844,4.91396063905568,-0.00412244797646899,1,15.5,29.9
0.733333333333333,11.809039278111,12.5339983328392,4.90984586385584,-0.00411477519984427,1,15.5,29.9
0.766666666666667,11.8096875166048,12.697590111554,4.90573941001868,-0.00410645383716268,1,15.5,29.9
0.8,11.8103602563122,12.8610450620757,4.90164239402824,-0.00409701599043188,1,15.5,29.9
0.833333333333333,11.8110575678154,13.0243635182649,4.89755625080579,-0.00408614322245349,1,15.5,29.9
0.866666666666667,11.8117788643485,13.1875458631425,4.89348220063269,-0.00407405017310403,1,15.5,29.9
0.9,11.8125231229496,13.3505925153615,4.88942110215303,-0.00406109847965119,1,15.5,29.9
0.933333333333333,11.8132891283906,13.5135039242861,4.88537389764947,-0.00404720450356955,1,15.5,29.9
0.966666666666667,11.8140756958806,13.6762805709547,4.88134145414729,-0.00403244350217857,1,15.5,29.9
1,11.8148818388532,13.8389229596238,4.87732433042077,-0.00401712372651186,1,15.5,29.9
1.03333333333333,11.8157068638763,14.0014316078175,4.87332284507405,-0.00400148534672606,1,15.5,29.9
1.06666666666667,11.8165503915962,14.1638070392715,4.86933714494036,-0.00398570013368982,1,15.5,29.9
1.1,11.8174123169169,14.3260497791234,4.86536725361705,-0.00396989132330994,1,15.5,29.9
1.13333333333333,11.8182927306876,14.488160350844,4.86141312584812,-0.00395412776893078,1,15.5,29.9
1.16666666666667,11.819191827936,14.6501392771573,4.8574748265988,-0.00393829924931577,1,15.5,29.9
1.2,11.8201098246381,14.811987083784,4.85355243789102,-0.00392238870778083,1,15.5,29.9
1.23333333333333,11.8210468979035,14.9737042987819,4.84964604610757,-0.00390639178344987,1,15.5,29.9
1.26666666666667,11.8220031557366,15.1352914554684,4.84575586012564,-0.00389018598192958,1,15.5,29.9
1.3,11.822978634321,15.2967490971945,4.84188225773739,-0.00387360238824908,1,15.5,29.9
1.33333333333333,11.8239733149357,15.4580777810351,4.83802560599007,-0.00385665174732619,1,15.5,29.9
1.36666666666667,11.8249871499603,15.619278073012,4.83418606236935,-0.00383954362072103,1,15.5,29.9
1.4,11.8260200880013,15.780350541629,4.8303636352845,-0.00382242708484615,1,15.5,29.9
1.43333333333333,11.8270720910247,15.9412957556619,4.82655837281306,-0.00380526247143642,1,15.5,29.9
1.46666666666667,11.8281431403644,16.1021142873136,4.82277042505194,-0.00378794776112557,1,15.5,29.9
1.5,11.8292332323382,16.262806713977,4.81899995243627,-0.0037704726156722,1,15.5,29.9
1.53333333333333,11.8303423670927,16.4233736191379,4.8152471787208,-0.00375277371546812,1,15.5,29.9
1.56666666666667,11.8314705355805,16.5838155950446,4.81151238236874,-0.0037347963520542,1,15.5,29.9
1.6,11.8326177092176,16.7441332425548,4.80779577777791,-0.003716604590835,1,15.5,29.9
1.63333333333333,11.8337838352726,16.9043271678672,4.80409745419943,-0.00369832357847777,1,15.5,29.9
1.66666666666667,11.8349688389489,17.064397977962,4.80041735788824,-0.00368009631118671,1,15.5,29.9
1.7,11.8361726311022,17.2243462758257,4.7967552970299,-0.00366206085834442,1,15.5,29.9
1.73333333333333,11.8373951191077,17.3841726560123,4.79311095717142,-0.00364433985847779,1,15.5,29.9
1.76666666666667,11.8386362178427,17.5438777009116,4.78948393968104,-0.00362701749038408,1,15.5,29.9
1.8,11.8398958580952,17.7034619806597,4.78587395521635,-0.00360998446468397,1,15.5,29.9
1.83333333333333,11.8411739906918,17.8629260596163,4.78228096026732,-0.00359299494903009,1,15.5,29.9
1.86666666666667,11.8424705858769,18.0222705052212,4.77870520266366,-0.00357575760366302,1,15.5,29.9
1.9,11.8437856287087,18.1814958983362,4.7751472397784,-0.003557962885262,1,15.5,29.9
1.93333333333333,11.8451191120735,18.3406028423675,4.77160784917609,-0.00353939060231045,1,15.5,29.9
1.96666666666667,11.8464710292447,18.4995919682709,4.76808788211967,-0.00351996705641788,1,15.5,29.9
2,11.8478413696668,18.658464194509,4.7646480252517,-0.00343985686797055,1,15.5,29.9
2.03333333333333,11.8492302581101,18.8172397733864,4.76280064010552,-0.00184738514617866,1,15.5,29.9
2.06666666666667,11.8506385426837,18.9760347250212,4.7665649845362,0.00376434443067541,1,15.5,29.9
2.1,11.8520680994988,19.1350941373278,4.77890405064057,0.0123390661043743,1,15.5,29.9
2.13333333333333,11.8535213399021,19.2947190836086,4.80056924983207,0.0216651991914949,4,15.5,29.9
2.16666666666667,11.8550009093442,19.4552216319456,4.83146462541134,0.0308953755792789,4,15.5,29.9
2.2,11.8565094717747,19.616894200022,4.87057321638891,0.0391085909775661,4,15.5,29.9
2.23333333333333,11.858049548246,19.7799887880321,4.91657758833045,0.0460043719415442,4,15.5,29.9
2.26666666666667,11.8596234729219,19.9447133993724,4.96817865903846,0.0516010707080046,4,15.5,29.9
2.3,11.8612333813217,20.111234081159,5.02417019733614,0.0559915382976772,4,15.5,29.9
2.33333333333333,11.8628812119447,20.2796795321321,5.08353081772067,0.0593606203845338,4,15.5,29.9
2.36666666666667,11.8645687264382,20.45014817233,5.14546514573826,0.061934328017589,4,15.5,29.9
2.4,11.8662975318714,20.6227150923059,5.20935642950186,0.0638912837636001,4,15.5,29.9
2.43333333333333,11.8680690964011,20.7974374600813,5.27475089006281,0.0653944605609542,4,15.5,29.9
2.46666666666667,11.8698847737111,20.9743599141723,5.34133994730004,0.0665890572372296,4,15.5,29.9
2.5,11.8717458242519,21.1535185086814,5.40891020093061,0.0675702536305707,4,15.5,29.9
2.53333333333333,11.8736534290445,21.3349428778094,5.4772787875752,0.0683685866445902,4,15.5,29.9
2.56666666666667,11.875608698366,21.5186571230141,5.54630862555985,0.0690298379846466,4,15.5,29.9
2.6,11.87761269716,21.7046820071051,5.61593350119235,0.0696248756325035,4,15.5,29.9
2.63333333333333,11.8796664726217,21.8930370615405,5.68614467199301,0.0702111708006523,4,15.5,29.9
2.66666666666667,11.8817710788621,22.0837422547513,5.75697139155131,0.0708267195583048,4,15.5,29.9
2.7,11.8839275915208,22.2768186525649,5.82845044734864,0.0714790557973322,4,15.5,29.9
2.73333333333333,11.8861371217406,22.4722891346039,5.90065795279012,0.0722075054414733,4,15.5,29.9
2.76666666666667,11.8884008335646,22.6701795863939,5.97369264014221,0.0730346873520897,4,15.5,29.9
2.8,11.8907192563161,22.8705192337451,6.0476537180772,0.0739610779349906,4,15.5,29.9
2.83333333333333,11.893089908528,23.0733405560479,6.12263477686828,0.0749810587910851,4,15.5,29.9
2.86666666666667,11.8955083781302,23.2786790781578,6.19872172003544,0.076086943167156,4,15.5,29.9
2.9,11.8979719500499,23.4865726589396,6.27596395557825,0.0772422355428111,4,15.5,29.9
2.93333333333333,11.900479982591,23.6970600469982,6.35436964793292,0.0784056923546723,4,15.5,29.9
2.96666666666667,11.9030333153007,23.9101796289148,6.43390769183325,0.079538043900329,4,15.5,29.9
3,11.9056337008705,24.1259679522781,6.51449906489005,0.0805913730567989,4,15.5,29.9
3.03333333333333,11.9082833431746,24.3444581479134,6.59602150565455,0.0815224407644957,4,15.5,29.9
3.06666666666667,11.9109845779985,24.5656790110024,6.6783441750729,0.0823226694183505,4,15.5,29.9
3.1,11.9137396932426,24.7896553679044,6.7613611221746,0.0830169471017062,4,15.5,29.9
3.13333333333333,11.916550841459,25.0164083580901,6.84494522527354,0.0835841030989384,4,15.5,29.9
3.16666666666667,11.919419990938,25.2459541933894,6.92893260888909,0.0839873836155522,4,15.5,29.9
3.2,11.9223489037433,25.4783030976831,7.01312431102571,0.0841917021366125,4,15.5,29.9
3.23333333333333,11.9253391173166,25.713458078547,7.09729063025989,0.084166319234189,4,15.5,29.9
3.26666666666667,11.9283919292103,25.9514141300609,7.18117001229152,0.083879382031621,4,15.5,29.9
3.3,11.9315083484386,26.1921547736587,7.26431646771225,0.0831464554207342,4,15.5,29.9
3.33333333333333,11.9346890501214,26.4356486232848,7.34636367552244,0.0820472078101888,4,15.5,29.9
3.36666666666667,11.9379356844165,26.6819539263798,7.43553096257032,0.0891672870478866,4,15.5,29.9
3.4,11.9412533385903,26.9314107307616,7.53412650823886,0.098595545668533,4,15.5,29.9
3.43333333333333,11.9446452808593,27.1842136050481,7.63545864724442,0.101332139005563,4,15.5,29.9
3.46666666666667,11.9481125479413,27.4403791051872,7.73541077657032,0.099952129325902,4,15.5,29.9
3.5,11.9516548429752,27.6998178547121,7.83160850901395,0.0961977324436267,4,15.5,29.9
3.53333333333333,11.9552711281377,27.9623816441821,7.92283590402872,0.0912273950147737,4,15.5,29.9
3.56666666666667,11.9589600524252,28.2278973146795,8.00876581888827,0.0859299148595465,4,15.5,29.9
3.6,11.9627202505228,28.4961905831306,8.08958976812043,0.0808239492321654,4,15.5,29.9
3.63333333333333,11.9665504811454,28.7670976182744,8.16571579874944,0.0761260306290001,4,15.5,29.9
3.66666666666667,11.9704496826515,29.040470343248,8.23766520600446,0.0719494072550244,4,15.5,29.9
3.7,11.9744169835444,29.3161782024351,8.30593853548023,0.0682733294757707,4,15.5,29.9
3.73333333333333,11.9784516524448,29.5941051890528,8.37093025255504,0.0649917170748076,4,15.5,29.9
3.76666666666667,11.9825530983223,29.8741501507107,8.43315161025527,0.0622213577002313,4,15.5,29.9
3.8,11.986720902241,30.156228887054,8.49306637078625,0.0599147605309795,4,15.5,29.9
3.83333333333333,11.9909547751034,30.4402705414768,8.5510293516315,0.0579629808452538,4,15.5,29.9
3.86666666666667,11.9952545392664,30.7262155012742,8.60736138818167,0.0563320365501667,4,15.5,29.9
3.9,11.9996211430256,31.0140141254167,8.66233980378733,0.0549784156056603,4,15.5,29.9
3.93333333333333,12.0040588397258,31.3036251638514,8.71619257017624,0.0538527663889123,4,15.5,29.9
3.96666666666667,12.0085709051033,31.595014080605,8.76909417462982,0.0529016044535755,4,15.5,29.9
4,12.0131600371384,31.8881515800969,8.82119016770225,0.0520959930724292,4,15.5,29.9
4.03333333333333,12.0178310890334,32.183012958751,8.87261177210516,0.0514216044029183,4,15.5,29.9
4.06666666666667,12.0225874232596,32.4795775993197,8.92347214855427,0.0508603764491102,4,15.5,29.9
4.1,12.0274306940836,32.7778285883283,8.97388168037098,0.0504095318167046,4,15.5,29.9
4.13333333333333,12.0323616399512,33.0777525660233,9.02393778093752,0.0500561005665432,4,15.5,29.9
4.16666666666667,12.0373806076838,33.3793390143529,9.07371327843396,0.0497754974964337,4,15.5,29.9
4.2,12.0424878437639,33.6825794007596,9.12325388018662,0.0495406017526623,4,15.5,29.9
4.23333333333333,12.0476836151975,33.987466259056,9.17257630854979,0.0493224283631761,4,15.5,29.9
4.26666666666667,12.0529682233678,34.2939919759807,9.22165749521507,0.0490811866652798,4,15.5,29.9
4.3,12.0583419816224,34.6021481596896,9.27048145301637,0.0488239578012966,4,15.5,29.9
4.33333333333333,12.0638052044322,34.9119261529025,9.31904477577786,0.0485633227614937,4,15.5,29.9
4.36666666666667,12.069358203461,35.2233172190421,9.36734713108406,0.048302355306193,4,15.5,29.9
4.4,12.075001299748,35.5363127234473,9.41539184351292,0.048044712428867,4,15.5,29.9
4.43333333333333,12.0807348406514,35.8509039557088,9.46317293351279,0.0477810899998659,4,15.5,29.9
4.46666666666667,12.0865592213395,36.1670820926804,9.51069071701772,0.0475177835049312,4,15.5,29.9
4.5,12.0924749052828,36.4848384286676,9.55795084227359,0.0472601252558675,4,15.5,29.9
4.53333333333333,12.0984824297425,36.8041643377996,9.6049486081593,0.0469977658857061,4,15.5,29.9
4.56666666666667,12.1045823862987,37.1250504852111,9.65163913585651,0.046690527697212,4,15.5,29.9
4.6,12.1107753652369,37.4474846036818,9.69788769904375,0.0462485631872447,4,15.5,29.9
4.63333333333333,12.1170618874017,37.771448972739,9.74351551962214,0.0456278205783853,4,15.5,29.9
4.66666666666667,12.1234423736422,38.0969200725849,9.78836131163642,0.044845792014284,4,15.5,29.9
4.7,12.1299171462329,38.4238698117198,9.83231442174485,0.0439531101084256,4,15.5,29.9
4.73333333333333,12.1364864478012,38.7522673663366,9.87532104239205,0.0430066206472013,4,15.5,29.9
4.76666666666667,12.1431504643114,39.0820808572452,9.91736750702806,0.0420464646360141,4,15.5,29.9
