Time,x_ego,y_ego,velocity,acceleration,action,x_ped,y_ped
0,11.8,15.9,5,0,1,15.5,29.9
0.0333333333333333,11.7999975899412,16.0666076888399,4.99642261859086,-0.00357738140914421,1,15.3694444444444,29.9
0.0666666666666667,11.7999827153849,16.233092680609,4.99265104290574,-0.0037715756851151,1,15.2444444444444,29.9
0.1,11.7999493895122,16.3994498041094,4.98876380554333,-0.00388723736240859,1,15.125,29.9
0.133333333333333,11.7998978642346,16.5656764557104,4.98483375146145,-0.00393005408187896,1,15.0111111111111,29.9
0.166666666666667,11.7998322973222,16.7317721508748,4.98091359808256,-0.00392015337888907,1,14.9027777777778,29.9
0.2,11.7997571092498,16.8977378051762,4.97703554726258,-0.00387805081998494,1,14.8,29.9
0.233333333333333,11.7996759527138,17.0635751521388,4.97321735495427,-0.00381819230830871,1,14.7027777777778,29.9
0.266666666666667,11.7995915993351,17.2292863417285,4.96946686168445,-0.00375049326982424,1,14.6111111111111,29.9
0.3,11.7995059920789,17.3948736636838,4.96578508186521,-0.00368177981923878,1,14.525,29.9
0.333333333333333,11.7994203757617,17.5603494558606,4.96344279360265,-0.00234228826255301,1,14.4444444444444,29.9
0.366666666666667,11.799335408872,17.7258647713835,4.96936147754878,0.00591868394612227,1,14.3694444444444,29.9
0.4,11.7992512568326,17.8917758024456,4.98738924334241,0.0180277657936303,4,14.3,29.9
0.433333333333333,11.7991677091572,18.0584921132794,5.01749002622722,0.0301007828848165,4,14.2361111111111,29.9
0.466666666666667,11.7990842611482,18.2263908781461,5.05799844501581,0.0405084187885869,4,14.1777777777778,29.9
0.5,11.7990001755827,18.395784577947,5.10684128835733,0.0488428433415189,4,14.125,29.9
0.533333333333333,11.7989145456284,18.5669166673242,5.16196017280258,0.0551188844452541,4,14.0777777777778,29.9
0.566666666666667,11.7988263738104,18.7399621836505,5.22130110721179,0.0593409344092093,4,14.0361111111111,29.9
0.6,11.7987346665441,18.9150271513962,5.28276707265348,0.0614659654416911,4,14,29.9
0.633333333333333,11.7986385353342,19.0921403543237,5.34361829654188,0.0608512238883971,4,13.9694444444444,29.9
0.666666666666667,11.7985372965789,19.2712199983328,5.40011939530224,0.0565010987603554,4,13.9444444444444,29.9
0.7,11.7984305426776,19.452050797116,5.44787396504545,0.0477545697432094,4,13.925,29.9
0.733333333333333,11.7983181729149,19.6342763262406,5.48361520256046,0.0357412375150137,4,13.9111111111111,29.9
0.766666666666667,11.7982003374529,19.8175020595671,5.50836905743445,0.0247538548739916,4,13.9027777777778,29.9
0.8,11.7980773375717,20.0014118951167,5.52510419054544,0.0167351331109904,1,13.9,29.9
0.833333333333333,11.7979495518504,20.1857784102735,5.53608621780137,0.0109820272559285,1,13.9,29.9
0.866666666666667,11.797817374964,20.3704383915186,5.54293808403663,0.00685186623525791,1,13.9,29.9
0.9,11.7976811636537,20.5552746127038,5.54682215959126,0.00388407555462855,1,13.9,29.9
0.933333333333333,11.7975405518643,20.740202776796,5.54857068415276,0.00174852456150543,1,13.9,29.9
0.966666666666667,11.7973928983198,20.925162156843,5.54877919218617,0.000208508033409771,1,13.9,29.9
1,11.7972352277651,21.1101088896421,5.54787347799487,-0.000905714191306473,1,13.9,29.9
1.03333333333333,11.7970632461848,21.2950111666064,5.54615759593492,-0.00171588205994766,1,13.9,29.9
1.06666666666667,11.7968739046496,21.4798457869424,5.54384826376372,-0.00230933217119933,1,13.9,29.9
1.1,11.7966658282785,21.6645956835332,5.54109955978766,-0.00274870397605564,1,13.9,29.9
1.13333333333333,11.7964388858545,21.8492481455983,5.53802062146843,-0.00307893831922978,1,13.9,29.9
1.16666666666667,11.7961937747428,22.0337935402334,5.53468830129236,-0.00333232017606999,1,13.9,29.9
1.2,11.7959316728399,22.2182243903018,5.53115618017871,-0.00353212111365409,1,13.9,29.9
1.23333333333333,11.7956539762457,22.4025347064356,5.52746095469281,-0.00369522548589973,1,13.9,29.9
1.26666666666667,11.7953621775981,22.5866613681168,5.52013909920418,-0.00732185548863207,1,13.9,29.9
1.3,11.7950578545241,22.7703976630534,5.50403958088734,-0.0160995183168415,1,13.9,29.9
1.33333333333333,11.794742499021,22.9535089297111,5.48263714212763,-0.0214024387597016,3,13.9,29.9
1.36666666666667,11.7944174583128,23.1357611278858,5.45249855736148,-0.0301385847661519,3,13.9,29.9
1.4,11.7940840949826,23.3167766674097,5.40844273754105,-0.0440558198204295,3,13.9,29.9
1.43333333333333,11.7937436176478,23.4961785675843,5.35568455562289,-0.0527581819181631,3,13.9,29.9
1.46666666666667,11.7933972192935,23.6735041477746,5.28386750234664,-0.0718170532762485,3,13.9,29.9
1.5,11.7930464893879,23.8479454574881,5.18263199388542,-0.101235508461222,3,13.9,29.9
1.53333333333333,11.7926935764331,24.0183201415939,5.03987342802893,-0.142758565856493,3,13.9,29.9
1.56666666666667,11.7923405629976,24.1835619129331,4.87466014230813,-0.165213285720794,3,13.9,29.9
1.6,11.7919889328431,24.3430950730085,4.69735961263443,-0.177300529673698,3,13.9,29.9
1.63333333333333,11.7916403024399,24.4967188736146,4.52010212721427,-0.177257485420165,3,13.9,29.9
1.66666666666667,11.7912987320448,24.6443483632327,4.33770607979521,-0.182396047419053,3,13.9,29.9
1.7,11.7909707157313,24.7856971375081,4.14326638603483,-0.194439693760384,3,13.9,29.9
1.73333333333333,11.7906641783185,24.9203347233939,3.93504394518002,-0.208222440854809,3,13.9,29.9
1.76666666666667,11.7903880597151,25.0479746877901,3.72341934724544,-0.211624597934577,3,13.9,29.9
1.8,11.790154033608,25.1685327373694,3.51013884813352,-0.213280499111927,3,13.9,29.9
1.83333333333333,11.7899740552447,25.281924663613,3.29345982522649,-0.216679022907028,3,13.8991319444444,29.9
1.86666666666667,11.7898579817584,25.3880950171541,3.07684925048444,-0.216610574742048,3,13.8965277777778,29.9
1.9,11.7898107582766,25.4870461453251,2.86030734944931,-0.216541901035136,3,13.8921875,29.9
1.93333333333333,11.7898309090555,25.5788091041627,2.64555619675208,-0.214751152697229,3,13.8861111111111,29.9
1.96666666666667,11.789911300752,25.6634149431934,2.43087348443742,-0.214682712314659,3,13.8782986111111,29.9
2,11.7900402982297,25.7408659990101,2.21625400173256,-0.214619482704859,3,13.86875,29.9
2.03333333333333,11.7902029616617,25.8111704041547,2.00235362101749,-0.213900380715067,3,13.8574652777778,29.9
2.06666666666667,11.7903838422562,25.8743555642919,1.78930842518478,-0.21304519583271,3,13.8444444444444,29.9
2.1,11.7905679806053,25.9304934857994,1.57956218223976,-0.209746242945027,3,13.8296875,29.9
2.13333333333333,11.7907418747518,25.9797560511381,1.37681101032831,-0.202751171911441,3,13.8131944444444,29.9
2.16666666666667,11.7908940742303,26.0223208361647,1.17771190985397,-0.199099100474347,3,13.7949652777778,29.9
2.2,11.79101597571,26.0583104878392,0.982336930361737,-0.195374979492231,3,13.775,29.9
2.23333333333333,11.7911016534689,26.0878524199873,0.790919197512003,-0.191417732849734,3,13.7532986111111,29.9
2.26666666666667,11.7911477512987,26.1110801140304,0.603515259297964,-0.187403938214039,3,13.7298611111111,29.9
2.3,11.7911529784059,26.1281263753729,0.42013704564711,-0.183378213650854,3,13.7046875,29.9
2.33333333333333,11.7911174105622,26.139154963926,0.24262086380743,-0.17751618183968,3,13.6777777777778,29.9
2.36666666666667,11.7910418864855,26.1443297303609,0.0696991205051724,-0.172921743302258,3,13.6491319444444,29.9
2.4,11.7909269705633,26.1443189941699,0.0258103060455501,-0.0438888144596223,3,13.61875,29.9
2.43333333333333,11.7907702667588,26.1435439626383,0.0103144621862324,-0.0154958438593177,5,13.5866319444444,29.9
2.46666666666667,11.7907702667588,26.1435439626383,0.0105678815201363,0.000253419333903966,5,13.5527777777778,29.9
2.5,11.7907702667588,26.1435439626383,0.0112000809541216,0.000632199433985276,5,13.5171875,29.9
2.53333333333333,11.7907702667588,26.1435439626383,0.0121178963742498,0.00091781542012823,5,13.4798611111111,29.9
2.56666666666667,11.7907702667588,26.1435439626383,0.0131680567465132,0.00105016037226339,5,13.4407986111111,29.9
2.6,11.7907702667588,26.1435439626383,0.0141678573005677,0.000999800554054525,5,13.4,29.9
2.63333333333333,11.7907702667588,26.1435439626383,0.0149333346999664,0.000765477399398662,5,13.3574652777778,29.9
2.66666666666667,11.7907702667588,26.1435439626383,0.015302867162666,0.000369532462699568,5,13.3131944444444,29.9
2.7,11.7907702667588,26.1435439626383,0.0151548624529054,-0.00014800470976057,5,13.2671875,29.9
2.73333333333333,11.7907702667588,26.1435439626383,0.0144189132530861,-0.00073594919981932,5,13.2194444444444,29.9
2.76666666666667,11.7907702667588,26.1435439626383,0.0130804427438071,-0.00133847050927899,5,13.1699652777778,29.9
2.8,11.7907702667588,26.1435439626383,0.0111793972558016,-0.00190104548800553,5,13.11875,29.9
2.83333333333333,11.7907702667588,26.1435439626383,0.00880394568485903,-0.00237545157094254,5,13.0657986111111,29.9
2.86666666666667,11.7907702667588,26.1435439626383,0.00608040833205024,-0.00272353735280879,5,13.0111111111111,29.9
2.9,11.7907702667588,26.1435439626383,0.00316076396570022,-0.00291964436635002,5,12.9546875,29.9
2.93333333333333,11.7907702667588,26.1435439626383,0.000209085725719064,-0.00295167823998115,5,12.8965277777778,29.9
2.96666666666667,11.7907702667588,26.1435439626383,0.00261184642592842,0.00240276070020936,5,12.8366319444444,29.9
3,11.7907702667588,26.1435439626383,0.00515269260365936,0.00254084617773094,5,12.775,29.9
3.03333333333333,11.7907702667588,26.1435439626383,0.00728763331903419,0.00213494071537483,5,12.7116319444444,29.9
3.06666666666667,11.7907702667588,26.1435439626383,0.00892182409878821,0.00163419077975401,5,12.6465277777778,29.9
3.1,11.7907702667588,26.1435439626383,0.00999593671279303,0.00107411261400483,5,12.5796875,29.9
3.13333333333333,11.7907702667588,26.1435439626383,0.0104877547721567,0.000491818059363684,5,12.5111111111111,29.9
3.16666666666667,11.7907702667588,26.1435439626383,0.0104110145826082,-7.67401895484954e-05,5,12.4407986111111,29.9
3.2,11.7907702667588,26.1435439626383,0.0098118613872599,-0.000599153195348324,5,12.36875,29.9
3.23333333333333,11.7907702667588,26.1435439626383,0.00876341980722153,-0.00104844158003837,5,12.2949652777778,29.9
3.26666666666667,11.7907702667588,26.1435439626383,0.00735905327118946,-0.00140436653603207,5,12.2194444444444,29.9
3.3,11.7907702667588,26.1435439626383,0.00570491243212805,-0.00165414083906141,5,12.1421875,29.9
3.33333333333333,11.7907702667588,26.1435439626383,0.00391235220788127,-0.00179256022424678,5,12.0631944444444,29.9
3.36666666666667,11.7907702667588,26.1435439626383,0.00209073879723294,-0.00182161341064833,5,11.9824652777778,29.9
3.4,11.7907702667588,26.1435439626383,0.000341081003587558,-0.00174965779364538,5,11.9,29.9
3.43333333333333,11.7907702667588,26.1435439626383,0.00124918568048905,0.000908104676901489,5,11.8157986111111,29.9
3.46666666666667,11.7907702667588,26.1435439626383,0.00261004873201816,0.00136086305152911,5,11.7298611111111,29.9
3.5,11.7907702667588,26.1435439626383,0.00369130350619143,0.00108125477417328,5,11.6421875,29.9
3.53333333333333,11.7907702667588,26.1435439626383,0.00446348216871521,0.00077217866252378,5,11.5527777777778,29.9
3.56666666666667,11.7907702667588,26.1435439626383,0.00491742877735479,0.000453946608639576,5,11.4616319444444,29.9
3.6,11.7907702667588,26.1435439626383,0.00506269767896834,0.00014526890161355,5,11.36875,29.9
3.63333333333333,11.7907702667588,26.1435439626383,0.00492500654932415,-0.000137691129644187,5,11.2741319444444,29.9
3.66666666666667,11.7907702667588,26.1435439626383,0.00454300785238234,-0.000381998696941806,5,11.1777777777778,29.9
3.7,11.7907702667588,26.1435439626383,0.00396465394824807,-0.000578353904134276,5,11.0796875,29.9
3.73333333333333,11.7907702667588,26.1435439626383,0.00324342353038823,-0.000721230417859839,5,10.9798611111111,29.9
3.76666666666667,11.7907702667588,26.1435439626383,0.00243465348809669,-0.000808770042291539,5,10.8782986111111,29.9
3.8,11.7907702667588,26.1435439626383,0.00169079668172377,-0.000743856806372917,5,10.775,29.9
3.83333333333333,11.7907701144914,26.1437280346864,0.00626766213966764,0.00457686545794387,5,10.6699652777778,29.9
3.86666666666667,11.790769879667,26.1440120000796,0.0108722612524576,0.00460459911278998,5,10.5631944444444,29.9
3.9,11.7907695162204,26.1444509719983,0.0154672350155099,0.00459497376305223,5,10.4546875,29.9
3.93333333333333,11.7907689780402,26.1450997592446,0.023441700062715,0.00797446504720514,5,10.3444444444444,29.9
3.96666666666667,11.7907681956198,26.1460407684732,0.032997150417595,0.00955545035487996,5,10.2324652777778,29.9
4,11.7907670997094,26.1473548929676,0.0458246007518872,0.0128274503342922,5,10.11875,29.9
4.03333333333333,11.7907655491842,26.1492079673178,0.0653213414871205,0.0194967407352333,4,10.0032986111111,29.9
4.06666666666667,11.7907633310289,26.1518490514924,0.0930814063874718,0.0277600649003513,4,9.88611111111111,29.9
4.1,11.7907602776649,26.1554652131786,0.123798577425289,0.0307171710378174,4,9.7671875,29.9
4.13333333333333,11.7907563350617,26.160095017454,0.153877989893029,0.0300794124677396,4,9.64652777777778,29.9
4.16666666666667,11.7907514880169,26.165715559371,0.183228292791251,0.029350302898222,4,9.52413194444444,29.9
4.2,11.7907457094958,26.1723014509011,0.211790518928222,0.0285622261369708,4,9.4,29.9
4.23333333333333,11.7907389585599,26.1798257656889,0.239531905532715,0.0277413866044936,4,9.27413194444444,29.9
4.26666666666667,11.7907311786099,26.1882613674988,0.266480216333946,0.0269483108012313,4,9.14652777777778,29.9
4.3,11.7907222957296,26.1975829206469,0.292700875666943,0.0262206593329968,4,9.0171875,29.9
4.33333333333333,11.7907122143784,26.2077670893839,0.318246508520964,0.0255456328540209,4,8.88611111111111,29.9
4.36666666666667,11.7907008032795,26.2187920972055,0.343158200376314,0.0249116918553499,4,8.75329861111111,29.9
4.4,11.7906878617245,26.2306951311149,0.370931108252232,0.0277729078759185,4,8.61875,29.9
4.43333333333333,11.7906731256262,26.2435713859886,0.401549932091255,0.0306188238390226,4,8.48246527777778,29.9
4.46666666666667,11.7906561940701,26.2576604517122,0.443690480149564,0.0421405480583089,4,8.34444444444444,29.9
4.5,11.7906366937403,26.2731429497383,0.485141603940086,0.0414511237905217,4,8.2046875,29.9
4.53333333333333,11.7906143855085,26.289994535241,0.525822156364824,0.0406805524247387,4,8.06319444444444,29.9
4.56666666666667,11.790588927056,26.3081883945996,0.565669285222256,0.0398471288574319,4,7.91996527777778,29.9
4.6,11.7905598007206,26.3276960326569,0.604643708801324,0.0389744235790678,4,7.775,29.9
4.63333333333333,11.7905263455103,26.3484879467523,0.642723309234727,0.0380796004334025,4,7.62829861111111,29.9
4.66666666666667,11.7904877881942,26.3705341161209,0.679898423975852,0.037175114741125,4,7.47986111111111,29.9
4.7,11.7904433421475,26.3938044726988,0.716180908431022,0.0362824844551707,4,7.3296875,29.9
4.73333333333333,11.7903922568922,26.41827005066,0.751621237189237,0.0354403287582149,4,7.17777777777778,29.9
4.76666666666667,11.7903338488483,26.4439036190373,0.78626836580398,0.0346471286147427,4,7.02413194444444,29.9
4.8,11.7902675312842,26.4706794267326,0.82016256045136,0.0338941946473804,4,6.86875,29.9
4.83333333333333,11.790192840946,26.4985729510934,0.853337576361837,0.0331750159104768,4,6.71163194444444,29.9
4.86666666666667,11.7901094596844,26.5275607090807,0.885822258617787,0.0324846822559501,4,6.55277777777778,29.9
4.9,11.7900172296778,26.5576201072406,0.917640085083669,0.0318178264658814,4,6.3921875,29.9
4.93333333333333,11.7899161616212,26.5887288831087,0.948780381026612,0.0311402959429432,4,6.22986111111111,29.9
4.96666666666667,11.7898064355831,26.6208638558966,0.979209041963,0.0304286609363882,4,6.06579861111111,29.9
5,11.7896883922755,26.6540009529274,1.00890746863536,0.0296984266723629,4,5.9,29.9
5.03333333333333,11.7895625156678,26.688115684972,1.0378680428036,0.0289605741682331,4,5.9,29.9
5.06666666666667,11.7894294082259,26.7231834463288,1.06609142819242,0.0282233853888236,4,5.9,29.9
5.1,11.7892897597324,26.7591797848187,1.0935857235425,0.0274942953500832,4,5.9,29.9
5.13333333333333,11.7891443112553,26.7960806100363,1.12036416043599,0.0267784368934845,4,5.9,29.9
5.16666666666667,11.7889938161311,26.8338623394637,1.14644482484187,0.0260806644058855,4,5.9,29.9
5.2,11.7888389996038,26.8725022993369,1.1718665790439,0.0254217542020292,4,5.9,29.9
5.23333333333333,11.788680519371,26.9119792918914,1.19667389167453,0.0248073126306236,4,5.9,29.9
5.26666666666667,11.7885189304656,26.9522734767617,1.22090399697695,0.0242301053024259,4,5.9,29.9
5.3,11.788354655791,26.9933661553705,1.244588467411,0.0236844704340482,4,5.9,29.9
5.33333333333333,11.7881879639375,27.0352396046838,1.2677545029218,0.0231660355107977,4,5.9,29.9
5.36666666666667,11.78801895575,27.0778769482905,1.29042589265043,0.022671389728629,4,5.9,29.9
5.4,11.7878475606272,27.1212620553704,1.312623734863,0.0221978422125739,4,5.9,29.9
5.43333333333333,11.7876735429476,27.1653794605709,1.33436697824357,0.0217432433805673,4,5.9,29.9
5.46666666666667,11.7874965183692,27.210214299629,1.35567283097419,0.0213058527306238,4,5.9,29.9
5.5,11.7873159791462,27.2557522211039,1.37655310160971,0.0208802706355198,4,5.9,29.9
5.53333333333333,11.7871313273487,27.3019790441967,1.39700738436539,0.0204542827556753,4,5.9,29.9
5.56666666666667,11.7869419130846,27.348880575315,1.41703698713784,0.0200296027724547,4,5.9,29.9
5.6,11.786747074791,27.3964427327956,1.43664707409776,0.0196100869599176,4,5.9,29.9
5.63333333333333,11.7865461789909,27.4446518047806,1.45586595560395,0.0192188815061904,4,5.9,29.9
5.66666666666667,11.7863387624859,27.4934972142362,1.47487696686459,0.0190110112606421,4,5.9,29.9
5.7,11.7861248628956,27.5429778547575,1.49405661829138,0.0191796514267908,4,5.9,29.9
5.73333333333333,11.7859046423567,27.5931074575592,1.51390603143426,0.0198494131428746,4,5.9,29.9
5.76666666666667,11.785678241937,27.6439176323062,1.5349903741855,0.0210843427512448,4,5.9,29.9
5.8,11.7854457496789,27.6954595636523,1.55791708647497,0.0229267122894672,4,5.9,29.9
5.83333333333333,11.7852071662142,27.7478056691159,1.58336664765094,0.0254495611759729,4,5.9,29.9
5.86666666666667,11.7849624882095,27.8010533777224,1.6121653295325,0.0287986818815584,4,5.9,29.9
5.9,11.7847120151886,27.8553303031057,1.64529497626091,0.0331296467284108,4,5.9,29.9
5.93333333333333,11.7844558756537,27.9107978866719,1.68375871441647,0.038463738155563,4,5.9,29.9
5.96666666666667,11.7841938401107,27.9676479097251,1.72835077207102,0.0445920576545484,4,5.9,29.9
6,11.7839252917771,28.0260937883291,1.77957056295724,0.0512197908862149,4,5.9,29.9
6.03333333333333,11.7836492197601,28.086360975674,1.83764857122456,0.0580780082673189,4,5.9,29.9
6.06666666666667,11.7833642316207,28.1486786394819,1.90258227201481,0.0649337007902555,4,5.9,29.9
6.1,11.7830685894264,28.2132717943131,1.97410957072358,0.0715272987087647,4,5.9,29.9
6.13333333333333,11.7827602760091,28.28035189083,2.05169952503404,0.0775899543104641,4,5.9,29.9
6.16666666666667,11.78243707781,28.3501101760646,2.13468674344712,0.0829872184130749,4,5.9,29.9
6.2,11.7820966782263,28.4227145036988,2.22234319866383,0.0876564552167132,4,5.9,29.9
6.23333333333333,11.7817367586161,28.4983082051037,2.31393655666914,0.0915933580053157,4,5.9,29.9
6.26666666666667,11.7813550955034,28.5770115868055,2.40883767401965,0.0949011173505032,4,5.9,29.9
6.3,11.7809496417094,28.658926216835,2.5065393133001,0.0977016392804542,4,5.9,29.9
6.33333333333333,11.7805185990872,28.7441379644883,2.60660109916051,0.100061785860412,4,5.9,29.9
6.36666666666667,11.7800605098988,28.8327187369365,2.70862246914403,0.10202136998352,4,5.9,29.9
6.4,11.7795742870897,28.9247276877219,2.81224005399191,0.103617584847877,4,5.9,29.9
6.43333333333333,11.7790591526219,29.0202125163589,2.91712870473812,0.104888650746207,4,5.9,29.9
6.46666666666667,11.7785145442731,29.1192106026066,3.02299345128005,0.105864746541933,4,5.9,29.9
6.5,11.7779400129685,29.2217498505689,3.12955324098596,0.106559789705906,4,5.9,29.9
6.53333333333333,11.7773351316849,29.3278480082703,3.2364769743191,0.106923733333148,4,5.9,29.9
