Time,x_ego,y_ego,velocity,acceleration,action,x_ped,y_ped
0,11.8,8.9,5,0,1,15.5,29.9
0.0333333333333333,11.8000006488626,9.06660768884175,4.99642261469764,-0.00357738530236151,1,15.4972222222222,29.9
0.0666666666666667,11.8000048115017,9.23309265310805,4.99264757150657,-0.00377504319106947,1,15.4888888888889,29.9
0.1,11.8000149633178,9.39944929686329,4.98873131485878,-0.0039162566477895,1,15.475,29.9
0.133333333333333,11.800032530516,9.56567362423329,4.98471429915934,-0.00401701569943747,1,15.4555555555556,29.9
0.166666666666667,11.8000580714927,9.73176278614086,4.98062551684281,-0.0040887823165292,1,15.4305555555556,29.9
0.2,11.8000914994651,9.8977147554643,4.97648574561644,-0.0041397712263711,1,15.4,29.9
0.233333333333333,11.8001322997913,10.0635280942387,4.97230987652223,-0.00417586909421264,1,15.3666666666667,29.9
0.266666666666667,11.8001797141616,10.2292017868136,4.96810858238913,-0.00420129413310288,1,15.3333333333333,29.9
0.3,11.8002328809621,10.3947351202675,4.96388951324349,-0.00421906914563586,1,15.3,29.9
0.333333333333333,11.8002909336538,10.560127598685,4.95965815274132,-0.00423136050217199,1,15.2666666666667,29.9
0.366666666666667,11.800353065849,10.7253788816978,4.95541843181424,-0.00423972092708169,1,15.2333333333333,29.9
0.4,11.8004185733854,10.8904887404202,4.95117316842882,-0.00424526338541487,1,15.2,29.9
0.433333333333333,11.8004868816724,11.0554570258538,4.94692438276059,-0.00424878566823494,1,15.1666666666667,29.9
0.466666666666667,11.8005575628995,11.2202836462337,4.94267352306623,-0.00425085969435557,1,15.1333333333333,29.9
0.5,11.8006303441845,11.3849685507886,4.93842162753395,-0.00425189553227945,1,15.1,29.9
0.533333333333333,11.8007051055979,11.5495117181001,4.93416944024885,-0.00425218728509691,1,15.0666666666667,29.9
0.566666666666667,11.8007818667017,11.7139131477619,4.92991749429551,-0.00425194595334411,1,15.0333333333333,29.9
0.6,11.8008607615162,11.8781728544066,4.92566617134226,-0.00425132295325081,1,15,29.9
0.633333333333333,11.8009420039656,12.0422908634299,4.92141574440033,-0.00425042694192612,1,14.9666666666667,29.9
0.666666666666667,11.8010258479614,12.2062672079326,4.9171664085398,-0.00424933586053111,1,14.9333333333333,29.9
0.7,11.801112547607,12.3701019265346,4.91291830297291,-0.00424810556689259,1,14.9,29.9
0.733333333333333,11.8012023231166,12.5337950618125,4.90867152693718,-0.00424677603573365,1,14.8666666666667,29.9
0.766666666666667,11.8012953369046,12.6973466591826,4.90442615111603,-0.00424537582114493,1,14.8333333333333,29.9
0.8,11.8013916822472,12.8607567661003,4.90018222584103,-0.00424392527500039,1,14.8,29.9
0.833333333333333,11.8014913844813,13.0240254314846,4.89593978696754,-0.00424243887348918,1,14.7666666666667,29.9
0.866666666666667,11.8015944124843,13.1871527053021,4.8916988600647,-0.00424092690284628,1,14.7333333333333,29.9
0.9,11.8017006966458,13.3501386382645,4.88745946338295,-0.00423939668174356,1,14.7,29.9
0.933333333333333,11.8018101489603,13.5129832816085,4.88322160993893,-0.00423785344401928,1,14.6666666666667,29.9
0.966666666666667,11.8019226812452,13.6756866869351,4.87898530897076,-0.00423630096817007,1,14.6333333333333,29.9
1,11.8020382186048,13.8382489060931,4.8747505669544,-0.00423474201636065,1,14.6,29.9
1.03333333333333,11.8021567067698,14.0006699910954,4.87051738832242,-0.00423317863198136,1,14.5666666666667,29.9
1.06666666666667,11.8022781134438,14.1629499940609,4.86628577598613,-0.00423161233628644,1,14.5333333333333,29.9
1.1,11.8024024249769,14.325088967174,4.86205573172842,-0.00423004425771545,1,14.5,29.9
1.13333333333333,11.8025296403388,14.4870869626582,4.85782725650849,-0.00422847521992953,1,14.4666666666667,29.9
1.16666666666667,11.8026597644596,14.6489440327574,4.8536003507017,-0.00422690580679141,1,14.4333333333333,29.9
1.2,11.8027928026191,14.8106602297247,4.8493750142865,-0.00422533641520051,1,14.4,29.9
1.23333333333333,11.8029287568863,14.9722356058134,4.84515124698536,-0.00422376730113427,1,14.3666666666667,29.9
1.26666666666667,11.8030676248627,15.1336702132703,4.84092904836491,-0.00422219862045559,1,14.3333333333333,29.9
1.3,11.8032094003431,15.2949641043297,4.83670841790075,-0.00422063046415388,1,14.3,29.9
1.33333333333333,11.8033540751165,15.456117331209,4.83248935501389,-0.00421906288686191,1,14.2666666666667,29.9
1.36666666666667,11.8035016410248,15.6171299461043,4.82827185908619,-0.00421749592770659,1,14.2333333333333,29.9
1.4,11.8036520915399,15.7780020011873,4.82405592946298,-0.00421592962320183,1,14.2,29.9
1.43333333333333,11.8038054224293,15.9387335486036,4.81984156545006,-0.00421436401292485,1,14.1666666666667,29.9
1.46666666666667,11.8039616314385,16.0993246404719,4.81562876631056,-0.00421279913949846,1,14.1333333333333,29.9
1.5,11.804120717221,16.259775328884,4.81141753126541,-0.00421123504514931,1,14.1,29.9
1.53333333333333,11.8042826779363,16.4200856659056,4.80720785949844,-0.00420967176697307,1,14.0666666666667,29.9
1.56666666666667,11.8044475099649,16.5802557035767,4.8029997501656,-0.00420810933283455,1,14.0333333333333,29.9
1.6,11.8046152071035,16.7402854939127,4.79879320240651,-0.00420654775909135,1,14,29.9
1.63333333333333,11.8047857604199,16.9001750889039,4.79458821535593,-0.00420498705058403,1,13.9666666666667,29.9
1.66666666666667,11.8049591587529,17.0599245405153,4.79038478815321,-0.00420342720271361,1,13.9333333333333,29.9
1.7,11.8051353896722,17.219533900686,4.78618291994835,-0.00420186820486546,1,13.9,29.9
1.73333333333333,11.805314440621,17.3790032213276,4.78198260990402,-0.00420031004432886,1,13.8666666666667,29.9
1.76666666666667,11.8054962999521,17.5383325543236,4.77778385719423,-0.00419875270979198,1,13.8333333333333,29.9
1.8,11.8056809576314,17.6975219515286,4.7735866610005,-0.00419719619372572,1,13.8,29.9
1.83333333333333,11.8058684054939,17.8565714647679,4.76939102050704,-0.00419564049345755,1,13.7666666666667,29.9
1.86666666666667,11.8060586370597,18.0154811458375,4.76519693489621,-0.00419408561083845,1,13.7333333333333,29.9
1.9,11.8062516470191,18.1742510465046,4.76100440334522,-0.00419253155098609,1,13.7,29.9
1.93333333333333,11.8064474305579,18.3328812185083,4.75681342502475,-0.00419097832047388,1,13.6666666666667,29.9
1.96666666666667,11.8066459827019,18.49137171356,4.75262399909918,-0.00418942592556526,1,13.6333333333333,29.9
2,11.8068472978275,18.6497225833446,4.74843612472834,-0.00418787437083878,1,13.6,29.9
2.03333333333333,11.8070513694183,18.8079338795199,4.74424980106992,-0.00418632365842075,1,13.5666666666667,29.9
2.06666666666667,11.8072581900803,18.9660056537175,4.74006502728197,-0.0041847737879479,1,13.5333333333333,29.9
2.1,11.8074677517597,19.1239379575419,4.73588180252493,-0.00418322475703903,1,13.5,29.9
2.13333333333333,11.8076800460744,19.2817308425707,4.73170012596277,-0.00418167656216539,1,13.4666666666667,29.9
2.16666666666667,11.8078950646558,19.4393843603541,4.72751999676324,-0.00418012919952826,1,13.4333333333333,29.9
2.2,11.808112764839,19.5968694966713,4.72159750174926,-0.0059224950139809,1,13.4,29.9
2.23333333333333,11.8083330679947,19.7541281767345,4.71393290627758,-0.00766459547167919,1,13.3666666666667,29.9
2.26666666666667,11.8085557865797,19.9110162292132,4.6993602415227,-0.0145726647548843,1,13.3333333333333,29.9
2.3,11.8087806535523,20.067332107048,4.67960285655515,-0.019757384967547,3,13.3,29.9
2.33333333333333,11.8090074595105,20.2229317105393,4.65638420893963,-0.0232186476155185,3,13.2666666666667,29.9
2.36666666666667,11.8092359067712,20.3776132141395,4.62451739883921,-0.0318668101004231,3,13.2333333333333,29.9
2.4,11.809465606141,20.5311174440241,4.58574837599883,-0.0387690228403805,3,13.2,29.9
2.43333333333333,11.809696183614,20.6832139966265,4.54005743404114,-0.045690941957691,3,13.1666666666667,29.9
2.46666666666667,11.8099272815477,20.8337012420016,4.48919069993979,-0.0508667341013451,3,13.1333333333333,29.9
2.5,11.8101585609652,20.9824066852614,4.43315019991642,-0.056040500023367,3,13.1,29.9
2.53333333333333,11.8103897052072,21.1291869632651,4.37368180981389,-0.059468390102535,3,13.0666666666667,29.9
2.56666666666667,11.8106204630989,21.2739561771587,4.31248748580096,-0.0611943240129245,3,13.0333333333333,29.9
2.6,11.8108506152721,21.4166571784406,4.24959025092487,-0.0628972348760941,3,13,29.9
2.63333333333333,11.8110799803145,21.5572619230811,4.1867132195408,-0.0628770313840672,3,12.9666666666667,29.9
2.66666666666667,11.811308419075,21.6957710975683,4.12385697961571,-0.0628562399250905,3,12.9333333333333,29.9
2.7,11.811535797852,21.832185407006,4.06102192068215,-0.0628350589335618,3,12.9,29.9
2.73333333333333,11.8117619905296,21.9665055692099,3.99820831285644,-0.0628136078257095,3,12.8666666666667,29.9
2.76666666666667,11.811986836234,22.0987032446375,3.93367244470278,-0.0645358681536639,3,12.8333333333333,29.9
2.8,11.8122101814904,22.2287501039346,3.86915865929942,-0.0645137854033608,3,12.8,29.9
2.83333333333333,11.8124319226224,22.3566468921136,3.80466721296443,-0.0644914463349897,3,12.7666666666667,29.9
2.86666666666667,11.81265191739,22.4823656563025,3.7384761844141,-0.0661910285503295,3,12.7333333333333,29.9
2.9,11.8128700266499,22.6058784508788,3.67230808146581,-0.0661681029482861,3,12.7,29.9
2.93333333333333,11.8130861119104,22.7271573365952,3.60444096259405,-0.0678671188717597,3,12.6666666666667,29.9
2.96666666666667,11.813299942751,22.8461166133816,3.53313122366574,-0.0713097389283153,3,12.6333333333333,29.9
3,11.8135113302156,22.9626992993387,3.46184549410993,-0.0712857295558091,3,12.6,29.9
3.03333333333333,11.8137201730188,23.0769061945417,3.39058399836284,-0.0712614957470912,3,12.5666666666667,29.9
3.06666666666667,11.8139263672112,23.1887381065387,3.3193468458348,-0.0712371525280386,3,12.5333333333333,29.9
3.1,11.8141298072411,23.2981958474459,3.24813407663419,-0.0712127692006113,3,12.5,29.9
3.13333333333333,11.8143303872119,23.4052802318664,3.17694569502413,-0.0711883816100576,3,12.4666666666667,29.9
3.16666666666667,11.8145280021568,23.5099920753977,3.10578169094136,-0.0711640040827639,3,12.4333333333333,29.9
3.2,11.8147225491839,23.6123321935635,3.03464205097903,-0.071139639962337,3,12.4,29.9
3.23333333333333,11.8149139283818,23.7123014010481,2.96352676120174,-0.0711152897772842,3,12.3666666666667,29.9
3.26666666666667,11.8151019944029,23.8098718084956,2.89071366683215,-0.0728130943695917,3,12.3333333333333,29.9
3.3,11.815286604673,23.9050155288578,2.81792509329987,-0.0727885735322866,3,12.3,29.9
3.33333333333333,11.8154676177815,23.9977043145596,2.7434171702176,-0.0745079230822645,3,12.2666666666667,29.9
3.36666666666667,11.8156448439059,24.0878812200196,2.66721193265581,-0.0762052375617888,3,12.2333333333333,29.9
3.4,11.8158180933751,24.1754896714419,2.5893096816079,-0.0779022510479113,3,12.2,29.9
3.43333333333333,11.8159871236818,24.2604440395349,2.50796682082614,-0.0813428607817648,3,12.1666666666667,29.9
3.46666666666667,11.816151586365,24.3426009421325,2.42146178992356,-0.0865050309025777,3,12.1333333333333,29.9
3.5,11.8163112298758,24.4218747912519,2.33498372274095,-0.0864780671826062,3,12.1,29.9
3.53333333333333,11.8164659528854,24.498266492595,2.24853309729857,-0.0864506254423816,3,12.0666666666667,29.9
3.56666666666667,11.8166156570131,24.5717785872941,2.16228564005071,-0.0862474572478567,3,12.0333333333333,29.9
3.6,11.8167602756787,24.6424296773269,2.07704346461302,-0.0852421754376951,3,12,29.9
3.63333333333333,11.8168997484133,24.7102388392187,1.99184633161178,-0.0851971330012438,3,11.9666666666667,29.9
3.66666666666667,11.8170341059997,24.7752710214574,1.91043827112708,-0.0814080604846952,3,11.9333333333333,29.9
3.7,11.8171633945037,24.8375945009885,1.82931337051486,-0.0811249006122174,3,11.9,29.9
3.73333333333333,11.8172876137042,24.8972467170213,1.75014685997782,-0.079166510537042,3,11.8666666666667,29.9
3.76666666666667,11.8174068749289,24.9543200442816,1.67455647744816,-0.0755903825296618,3,11.8333333333333,29.9
3.8,11.817521237816,25.00887360742,1.5989477274796,-0.0756087499685609,3,11.8,29.9
3.83333333333333,11.8176307120939,25.0609348915234,1.52501071785726,-0.0739370096223335,3,11.7666666666667,29.9
3.86666666666667,11.8177353653818,25.1105585318589,1.45267518294865,-0.0723355349086103,3,11.7333333333333,29.9
3.9,11.8178353217646,25.1578258365147,1.38362183495751,-0.0690533479911422,3,11.7,29.9
3.93333333333333,11.8179307076886,25.2028164043311,1.31606445565718,-0.067557379300327,3,11.6666666666667,29.9
3.96666666666667,11.8180215965948,25.2455792392904,1.24994677791927,-0.0661176777379098,3,11.6333333333333,29.9
4,11.8181080614774,25.2861612667855,1.18520870967136,-0.0647380682479126,3,11.6,29.9
4.03333333333333,11.8181901747514,25.3246077589411,1.12181070446172,-0.063398005209643,3,11.5666666666667,29.9
4.06666666666667,11.818268063862,25.3609918190735,1.06146816953393,-0.0603425349277904,3,11.5333333333333,29.9
4.1,11.8183419148412,25.3954162282711,1.00423850372235,-0.0572296658115807,3,11.5,29.9
4.13333333333333,11.8184118627919,25.4279561323599,0.948401469243983,-0.0558370344783652,3,11.4666666666667,29.9
4.16666666666667,11.8184779897412,25.458658146651,0.893966882359297,-0.0544345868846856,3,11.4333333333333,29.9
4.2,11.8185403786823,25.4875687805632,0.840904800718884,-0.0530620816404135,3,11.4,29.9
4.23333333333333,11.8185991088736,25.5147321445801,0.789113899654046,-0.0517909010648384,3,11.3666666666667,29.9
4.26666666666667,11.818654309527,25.5402178056985,0.740228461063168,-0.0488854385908776,3,11.3333333333333,29.9
4.3,11.8187061054861,25.5640926532035,0.692452907926436,-0.0477755531367321,3,11.3,29.9
4.33333333333333,11.818754618298,25.586421380406,0.647452820555698,-0.0450000873707375,3,11.2666666666667,29.9
4.36666666666667,11.8187999680396,25.6072674815743,0.603495943726152,-0.0439568768295466,3,11.2333333333333,29.9
4.4,11.8188422201586,25.6266658897298,0.560590276890082,-0.0429056668360693,3,11.2,29.9
4.43333333333333,11.8188814409528,25.6446516436948,0.518734529439948,-0.0418557474501348,3,11.1666666666667,29.9
4.46666666666667,11.8189176969371,25.661259616777,0.47792050416508,-0.0408140252748676,3,11.1333333333333,29.9
4.5,11.8189510543814,25.6765243202865,0.438134698446484,-0.0397858057185962,3,11.1,29.9
4.53333333333333,11.8189815786457,25.6904795942316,0.399346250597834,-0.0387884478486502,3,11.0666666666667,29.9
4.56666666666667,11.8190093326675,25.7031578589912,0.361505794289898,-0.0378404563079355,3,11.0333333333333,29.9
4.6,11.8190343766164,25.7145899612927,0.324569389847667,-0.036936404442231,3,11,29.9
4.63333333333333,11.8190568252173,25.7248344356308,0.290241035218063,-0.0343283546296043,3,10.9666666666667,29.9
4.66666666666667,11.8190767909022,25.7339484509591,0.256734956686811,-0.0335060785312525,3,10.9333333333333,29.9
4.7,11.8190943269016,25.7419587774348,0.224013776843951,-0.0327211798428597,3,10.9,29.9
4.73333333333333,11.8191094848792,25.7488912372774,0.192068023662829,-0.0319457531811218,3,10.8666666666667,29.9
4.76666666666667,11.8191223184306,25.7547725238787,0.160953098157048,-0.031114925505781,3,10.8333333333333,29.9
4.8,11.8191328849218,25.7596311719273,0.130715399621318,-0.0302376985357304,3,10.8,29.9
4.83333333333333,11.8191412441159,25.7634968915817,0.101380265673276,-0.0293351339480418,3,10.7666666666667,29.9
4.86666666666667,11.8191474569188,25.766399966009,0.0729577672810771,-0.0284224983921987,3,10.7333333333333,29.9
4.9,11.8191515844435,25.7683708145238,0.0454471795448762,-0.0275105877362009,3,10.7,29.9
4.93333333333333,11.8191536873038,25.7694396783396,0.0188421103619113,-0.026605069182965,3,10.6666666666667,29.9
4.96666666666667,11.8191539827042,25.7697165895397,0.00485046156044008,-0.0139916488014712,5,10.6333333333333,29.9
5,11.819153132185,25.7695377585513,0.00876794915912988,0.00391748759868981,5,10.6,29.9
5.03333333333333,11.8191518141855,25.7692463805603,0.000861589820077707,-0.00790635933905218,5,10.5666666666667,29.9
5.06666666666667,11.8191518141855,25.7692463805603,0.00111505832111491,0.000253468501037205,5,10.5333333333333,29.9
5.1,11.8191518141855,25.7692463805603,0.00142325852584179,0.000308200204726879,5,10.5,29.9
5.13333333333333,11.8191518141855,25.7692463805603,0.00175719704900688,0.000333938523165089,5,10.4666666666667,29.9
5.16666666666667,11.8191518141855,25.7692463805603,0.00208262234018639,0.000325425291179508,5,10.4333333333333,29.9
5.2,11.8191518141855,25.7692463805603,0.00236477232917843,0.00028214998899204,5,10.4,29.9
5.23333333333333,11.8191518141855,25.7692463805603,0.00257245446009433,0.000207682130915899,5,10.3666666666667,29.9
5.26666666666667,11.8191518141855,25.7692463805603,0.00268120597254885,0.000108751512454522,5,10.3333333333333,29.9
5.3,11.8191518141855,25.7692463805603,0.00267539897937092,-5.80699317793022e-06,5,10.3,29.9
5.33333333333333,11.8191518141855,25.7692463805603,0.00254926276206387,-0.00012613621730705,5,10.2666666666667,29.9
5.36666666666667,11.8191518141855,25.7692463805603,0.00230688814366686,-0.000242374618397005,5,10.2333333333333,29.9
5.4,11.8191518141855,25.7692463805603,0.00196135141869444,-0.000345536724972424,5,10.2,29.9
5.43333333333333,11.8191518141855,25.7692463805603,0.00153314590533151,-0.000428205513362933,5,10.1666666666667,29.9
5.46666666666667,11.8191518141855,25.7692463805603,0.00104813748669792,-0.000485008418633588,5,10.1333333333333,29.9
5.5,11.8191518141855,25.7692463805603,0.000535267937009867,-0.000512869549688052,5,10.1,29.9
5.53333333333333,11.8191518141855,25.7692463805603,2.42190848464826e-05,-0.000511048852163384,5,10.0666666666667,29.9
5.56666666666667,11.8191518141855,25.7692463805603,0.000456774462671346,0.000432555377824864,5,10.0333333333333,29.9
5.6,11.8191518141855,25.7692463805603,0.00088281214596196,0.000426037683290614,5,10,29.9
5.63333333333333,11.8191518141855,25.7692463805603,0.00123380408074742,0.000350991934785459,5,9.96666666666667,29.9
5.66666666666667,11.8191518141855,25.7692463805603,0.00149547217668859,0.000261668095941173,5,9.93333333333333,29.9
5.7,11.8191518141855,25.7692463805603,0.00165985360959233,0.000164381432903735,5,9.9,29.9
5.73333333333333,11.8191518141855,25.7692463805603,0.00172532348468095,6.54698750886232e-05,5,9.86666666666667,29.9
5.76666666666667,11.8191518141855,25.7692463805603,0.00169618610638692,-2.91373782940298e-05,5,9.83333333333334,29.9
5.8,11.8191518141855,25.7692463805603,0.00158190903056783,-0.000114277075819095,5,9.8,29.9
5.83333333333333,11.8191518141855,25.7692463805603,0.00139609035545896,-0.000185818675108871,5,9.76666666666667,29.9
5.86666666666667,11.8191518141855,25.7692463805603,0.00115525753548246,-0.000240832819976496,5,9.73333333333333,29.9
5.9,11.8191518141855,25.7692463805603,0.000877595989208388,-0.000277661546274071,5,9.7,29.9
5.93333333333333,11.8191518141855,25.7692463805603,0.000581698986728561,-0.000295897002479827,5,9.66666666666667,29.9
5.96666666666667,11.8191518141855,25.7692463805603,0.000285418124678324,-0.000296280862050236,5,9.63333333333333,29.9
6,11.8191518141855,25.7692463805603,4.87768539372791e-06,-0.000280540439284596,5,9.6,29.9
6.03333333333333,11.8191518141855,25.7692463805603,0.000246302070818182,0.000241424385424454,5,9.56666666666667,29.9
6.06666666666667,11.8191518141855,25.7692463805603,0.000457546587504477,0.000211244516686296,5,9.53333333333333,29.9
6.1,11.8191518141855,25.7692463805603,0.000621625877481589,0.000164079289977111,5,9.5,29.9
6.13333333333333,11.8191518141855,25.7692463805603,0.000734719299495628,0.000113093422014039,5,9.46666666666667,29.9
6.16666666666667,11.8191518141855,25.7692463805603,0.000796268852216286,6.15495527206579e-05,5,9.43333333333333,29.9
6.2,11.8191518141855,25.7692463805603,0.000808654267136582,1.23854149202958e-05,5,9.4,29.9
6.23333333333333,11.8191518141855,25.7692463805603,0.000776730379382007,-3.19238877545744e-05,5,9.36666666666667,29.9
6.26666666666667,11.8191518141855,25.7692463805603,0.000707270965140757,-6.94594142412509e-05,5,9.33333333333333,29.9
6.3,11.8191518141855,25.7692463805603,0.00060836367530639,-9.89072898343667e-05,5,9.3,29.9
