Time,x_ego,y_ego,velocity,acceleration,action,x_ped,y_ped
0,11.8,15.9,5,0,1,15.5,29.9
0.0333333333333333,11.7999993820357,16.0666076888418,4.99642261466935,-0.00357738533064911,1,15.5,29.9
0.0666666666666667,11.7999954176174,16.2330926531086,4.9926475711652,-0.00377504350415148,1,15.5,29.9
0.1,11.7999857492211,16.3994492968689,4.98873131359086,-0.00391625757433989,1,15.5,29.9
0.133333333333333,11.799969018556,16.5656736242594,4.98471429628857,-0.0040170173022851,1,15.5,29.9
0.166666666666667,11.7999446938162,16.7317627862219,4.98062551192022,-0.00408878436835014,1,15.5,29.9
0.2,11.7999128576518,16.8977147556598,4.97648573855818,-0.00413977336204674,1,15.5,29.9
0.233333333333333,11.7998740001982,17.0635280946344,4.97230986758252,-0.00417587097565786,1,15.5,29.9
0.266666666666667,11.7998288436549,17.2292017875179,4.96810857203838,-0.00420129554413506,1,15.5,29.9
0.3,11.7997782086066,17.3947351214054,4.96388950202932,-0.00421907000906696,1,15.5,29.9
0.333333333333333,11.7997229203287,17.5601276003896,4.95965814118053,-0.00423136084878717,1,15.5,29.9
0.366666666666667,11.7996637468095,17.7253788841036,4.95541842033035,-0.00423972085017965,1,15.5,29.9
0.4,11.7996013586795,17.8904887436573,4.95117315732827,-0.00424526300208061,1,15.5,29.9
0.433333333333333,11.7995363031681,18.055457030045,4.94692437223381,-0.00424878509446458,1,15.5,29.9
0.466666666666667,11.7994689877138,18.220283651494,4.94267351320145,-0.00425085903235889,1,15.5,29.9
0.5,11.7993996722044,18.3849685572266,4.93842161833601,-0.00425189486543953,1,15.5,29.9
0.533333333333333,11.7993284708584,18.549511725821,4.93416943165925,-0.0042521866767542,1,15.5,29.9
0.566666666666667,11.7992553650453,18.7139131568714,4.92991748621195,-0.00425194544730623,1,15.5,29.9
0.6,11.7991802271267,18.8781728650149,4.92566616363677,-0.00425132257518168,1,15.5,29.9
0.633333333333333,11.7991028533654,19.0422908756554,4.92141573693542,-0.00425042670134701,1,15.5,29.9
0.666666666666667,11.7990230110774,19.20623815617,4.9154224912358,-0.0059932456996199,1,15.5,29.9
0.7,11.7989404782544,19.3699566190348,4.9076868365709,-0.0077356546648959,1,15.5,29.9
0.733333333333333,11.7988550987799,19.5333020843538,4.89304291559012,-0.0146439209807783,1,15.5,29.9
0.766666666666667,11.7987667899949,19.6961017022865,4.87493627623032,-0.0181066393598046,3,15.5,29.9
0.8,11.7986755259652,19.858240067719,4.85336806068443,-0.0215682155458881,3,15.5,29.9
0.833333333333333,11.7985813448466,20.0196308799802,4.83008336280435,-0.0232846978800829,3,15.5,29.9
0.866666666666667,11.7984843246057,20.1802456410447,4.8068052368397,-0.0232781259646444,3,15.5,29.9
0.9,11.7983845741479,20.3400845797619,4.78353427007808,-0.0232709667616202,3,15.5,29.9
0.933333333333333,11.7982822233449,20.4991479414409,4.76027087651277,-0.0232633935653128,3,15.5,29.9
0.966666666666667,11.7981774172688,20.657407280644,4.73529323079823,-0.024977645714543,3,15.5,29.9
1,11.7980702891132,20.8148341653414,4.71032390567401,-0.0249693251242151,3,15.5,29.9
1.03333333333333,11.7979609381634,20.971428877215,4.68536313728729,-0.0249607683867277,3,15.5,29.9
1.06666666666667,11.7978494405162,21.1271917049645,4.66041108813495,-0.024952049152331,3,15.5,29.9
1.1,11.797735851475,21.2821229421987,4.63546787182794,-0.02494321630701,3,15.5,29.9
1.13333333333333,11.7976202110394,21.4362228859257,4.61053357068559,-0.0249343011423564,3,15.5,29.9
1.16666666666667,11.7975025338066,21.5895205379272,4.58733036103461,-0.0232032096509798,3,15.5,29.9
1.2,11.7973828474945,21.7420161940165,4.56241380278465,-0.0249165582499566,3,15.5,29.9
1.23333333333333,11.7972611800079,21.8937101506284,4.5392283195235,-0.02318548326115,3,15.5,29.9
1.26666666666667,11.7971375081622,22.0446891729238,4.51951762560492,-0.0197106939185812,3,15.5,29.9
1.3,11.7970116953388,22.1952129531614,4.51191351790929,-0.00760410769563169,1,15.5,29.9
1.33333333333333,11.7968835931176,22.3455414985852,4.50780335660555,-0.00411016130373998,1,15.5,29.9
1.36666666666667,11.7967531704821,22.4957331166829,4.50369787548276,-0.00410548112278519,1,15.5,29.9
1.4,11.7966204242185,22.6457879458875,4.49959620001503,-0.00410167546773543,1,15.5,29.9
1.43333333333333,11.7964853428716,22.7957060995653,4.49549768867052,-0.00409851134451245,1,15.5,29.9
1.46666666666667,11.7963479097773,22.945487673109,4.49140186129467,-0.00409582737585001,1,15.5,29.9
1.5,11.7962081066697,23.0951327490222,4.48730835345092,-0.00409350784374141,1,15.5,29.9
1.53333333333333,11.7960659172484,23.2446414005648,4.48321688943653,-0.0040914640143912,1,15.5,29.9
1.56666666666667,11.7959214432799,23.3938690920615,4.47045127845926,-0.012765610977274,1,15.5,29.9
1.6,11.7957748453407,23.5426135399963,4.45422260343783,-0.0162286750214333,1,15.5,29.9
1.63333333333333,11.7956262338466,23.6907596920888,4.43455362261339,-0.0196689808244388,3,15.5,29.9
1.66666666666667,11.7954757366408,23.8381925294446,4.41142361197363,-0.0231300106397532,3,15.5,29.9
1.7,11.7953235224723,23.9847680030847,4.38311161761869,-0.0283119943549393,3,15.5,29.9
1.73333333333333,11.7951698250377,24.1302847013743,4.34789699457022,-0.0352146230484793,3,15.5,29.9
1.76666666666667,11.795014868794,24.2745699688304,4.30922583989038,-0.0386711546798342,3,15.5,29.9
1.8,11.794858840925,24.4175086077618,4.26709968743945,-0.0421261524509262,3,15.5,29.9
1.83333333333333,11.794701911205,24.5590145339222,4.22326387704137,-0.0438358103980816,3,15.5,29.9
1.86666666666667,11.7945442015456,24.6990594720357,4.17944158674324,-0.0438222902981309,3,15.5,29.9
1.9,11.7943858077606,24.8376438782752,4.13563342332484,-0.0438081634183991,3,15.5,29.9
1.93333333333333,11.7942268228925,24.9747682283996,4.09183974748752,-0.0437936758373256,3,15.5,29.9
1.96666666666667,11.7940673354529,25.1104330118839,4.04806076472829,-0.043778982759223,3,15.5,29.9
2,11.7939074284367,25.2446387277118,4.00429660193718,-0.0437641627911152,3,15.5,29.9
2.03333333333333,11.7937471789734,25.3773858813614,3.96054736437717,-0.0437492375600068,3,15.5,29.9
2.06666666666667,11.7935866883085,25.5086459167834,3.91506925176329,-0.0454781126138868,3,15.5,29.9
2.1,11.7934260233895,25.6384193513129,3.8713504905209,-0.0437187612423831,3,15.5,29.9
2.13333333333333,11.7932652478383,25.7667067045134,3.82590324746287,-0.0454472430580313,3,15.5,29.9
2.16666666666667,11.7931044527825,25.8934794333535,3.78047180186413,-0.0454314455987439,3,15.5,29.9
2.2,11.7929436973733,26.0187380653698,3.7350563473693,-0.0454154544948242,3,15.5,29.9
2.23333333333333,11.7927830716277,26.1424544277854,3.68793487956812,-0.0471214678011851,3,15.5,29.9
2.26666666666667,11.7926226666933,26.2646003536419,3.64082980663691,-0.0471050729312039,3,15.5,29.9
2.3,11.7924625764387,26.3851476816786,3.59201908416467,-0.0488107224722403,3,15.5,29.9
2.33333333333333,11.7923029308554,26.5040391922084,3.54148114903636,-0.0505379351283151,3,15.5,29.9
2.36666666666667,11.7921438980714,26.6211889743438,3.48751596211368,-0.0539651869226789,3,15.5,29.9
2.4,11.7919856863707,26.7364824324291,3.4301022933504,-0.057413668763282,3,15.5,29.9
2.43333333333333,11.7918284788013,26.8498336976901,3.37098480395433,-0.0591174893960678,3,15.5,29.9
2.46666666666667,11.7916724666353,26.9611569250655,3.30842020080097,-0.0625646031533651,3,15.5,29.9
2.5,11.7915179882653,27.0702507580535,3.23722115077279,-0.0711990500281745,3,15.5,29.9
2.53333333333333,11.7913654285792,27.1768851800635,3.16085536142586,-0.0763657893469283,3,15.5,29.9
2.56666666666667,11.7912152229386,27.2808015226922,3.07413621766938,-0.0867191437564809,3,15.5,29.9
2.6,11.7910678949361,27.3816834122863,2.97878816386892,-0.0953480538004601,3,15.5,29.9
2.63333333333333,11.7909238796785,27.479301021338,2.87827970410422,-0.100508459764701,3,15.5,29.9
2.66666666666667,11.7907835201935,27.5735110643196,2.77433507774227,-0.103944626361951,3,15.5,29.9
2.7,11.7906471720104,27.6641703157727,2.66523385553239,-0.109101222209875,3,15.5,29.9
2.73333333333333,11.790515236397,27.7511069030792,2.55097768623159,-0.114256169300806,3,15.5,29.9
2.76666666666667,11.7903880080215,27.8342354796817,2.43675629226802,-0.114221393963571,3,15.5,29.9
2.8,11.7902656667342,27.9135572120912,2.32257041615295,-0.11418587611507,3,15.5,29.9
2.83333333333333,11.7901484563144,27.9890156134376,2.20497388736402,-0.117596528788924,3,15.5,29.9
2.86666666666667,11.7900366719921,28.0605037097672,2.0845509665406,-0.120422920823418,3,15.5,29.9
2.9,11.789930509996,28.1279769797129,1.96424423901502,-0.120306727525583,3,15.5,29.9
2.93333333333333,11.7898300311501,28.1914792537736,1.84632760150215,-0.117916637512876,3,15.5,29.9
2.96666666666667,11.7897352271249,28.2510923610325,1.73089261244667,-0.115434989055474,3,15.5,29.9
3,11.7896460718606,28.3068982233849,1.61787488358465,-0.11301772886202,3,15.5,29.9
3.03333333333333,11.7895625659203,28.3589477053606,1.50550106307729,-0.11237382050736,3,15.5,29.9
3.06666666666667,11.7894846984899,28.4072902081204,1.39544028866129,-0.110060774416004,3,15.5,29.9
3.1,11.7894124506397,28.4519733017622,1.2859278196151,-0.109512469046183,3,15.5,29.9
3.13333333333333,11.7893457967382,28.4930432095573,1.17863526365185,-0.107292555963257,3,15.5,29.9
3.16666666666667,11.7892846672465,28.5305729901634,1.07351736084037,-0.105117902811474,3,15.5,29.9
3.2,11.7892289873007,28.5646356219769,0.970626155839517,-0.102891205000856,3,15.5,29.9
3.23333333333333,11.7891786734362,28.5953070545581,0.870063655868767,-0.10056249997075,3,15.5,29.9
3.26666666666667,11.7891336355631,28.6226652914193,0.771823383871108,-0.0982402719976592,3,15.5,29.9
3.3,11.7890937842146,28.6467855938221,0.675776208236423,-0.0960471756346845,3,15.5,29.9
3.33333333333333,11.789059032435,28.6677394208517,0.581842753294266,-0.0939334549421573,3,15.5,29.9
3.36666666666667,11.7890292916784,28.6855975403047,0.490051555139945,-0.0917911981543208,3,15.5,29.9
3.4,11.7890044694114,28.7004318734906,0.400426837166816,-0.0896247179731289,3,15.5,29.9
3.43333333333333,11.7889844712158,28.7123141433379,0.312925576542505,-0.0875012606243117,3,15.5,29.9
3.46666666666667,11.7889692040073,28.7213137499328,0.227465828333143,-0.0854597482093619,3,15.5,29.9
3.5,11.7889585762789,28.7274977654638,0.144019259433117,-0.0834465689000258,3,15.5,29.9
3.53333333333333,11.7889524922628,28.7309352257024,0.062750113703241,-0.0812691457298761,3,15.5,29.9
3.56666666666667,11.7889504958503,28.7319468104697,0.0198422960558259,-0.0429078176474151,3,15.5,29.9
3.6,11.7889503160964,28.7321237235173,0.0227689918041551,0.00292669574832913,5,15.5,29.9
3.63333333333333,11.7889521061286,28.7313692594804,0.00229388600336033,-0.0204751058007947,3,15.5,29.9
3.66666666666667,11.7889521061286,28.7313692594804,0.00242355012278348,0.00012966411942315,5,15.5,29.9
3.7,11.7889521061286,28.7313692594804,0.00283491806710151,0.000411367944318026,5,15.5,29.9
3.73333333333333,11.7889521061286,28.7313692594804,0.00345742759371233,0.000622509526610822,5,15.5,29.9
3.76666666666667,11.7889521061286,28.7313692594804,0.00419514787216642,0.000737720278454094,5,15.5,29.9
3.8,11.7889521061286,28.7313692594804,0.00494169360274144,0.000746545730575018,5,15.5,29.9
3.83333333333333,11.7889521061286,28.7313692594804,0.00559360576128899,0.00065191215854755,5,15.5,29.9
3.86666666666667,11.7889521061286,28.7313692594804,0.00606131370303794,0.000467707941748951,5,15.5,29.9
3.9,11.7889521061286,28.7313692594804,0.0062771382462744,0.000215824543236455,5,15.5,29.9
3.93333333333333,11.7889521061286,28.7313692594804,0.00620012306497843,-7.70151812959701e-05,5,15.5,29.9
3.96666666666667,11.7889521061286,28.7313692594804,0.00581777086794422,-0.000382352197034204,5,15.5,29.9
4,11.7889521061286,28.7313692594804,0.00514499645495592,-0.000672774412988306,5,15.5,29.9
4.03333333333333,11.7889521061286,28.7313692594804,0.00422078222476085,-0.000924214230195067,5,15.5,29.9
4.06666666666667,11.7889521061286,28.7313692594804,0.00310313039091464,-0.0011176518338462,5,15.5,29.9
4.1,11.7889521061286,28.7313692594804,0.0018629524881221,-0.00124017790279255,5,15.5,29.9
4.13333333333333,11.7889521061286,28.7313692594804,0.000577527272274709,-0.00128542521584739,5,15.5,29.9
4.16666666666667,11.7889521061286,28.7313692594804,0.000675897655837982,9.83703835632729e-05,5,15.5,29.9
4.2,11.7889521061286,28.7313692594804,0.00182587592066551,0.00114997826482752,5,15.5,29.9
4.23333333333333,11.7889521061286,28.7313692594804,0.00281153324039085,0.000985657319725344,5,15.5,29.9
4.26666666666667,11.7889521061286,28.7313692594804,0.00358609303839103,0.000774559798000178,5,15.5,29.9
4.3,11.7889521061286,28.7313692594804,0.00411903598769771,0.000532942949306683,5,15.5,29.9
4.33333333333333,11.7889521061286,28.7313692594804,0.00439688921081293,0.00027785322311522,5,15.5,29.9
4.36666666666667,11.7889521061286,28.7313692594804,0.00442274157066178,2.58523598488459e-05,5,15.5,29.9
4.4,11.7889521061286,28.7313692594804,0.00421466147291742,-0.00020808009774436,5,15.5,29.9
4.43333333333333,11.7889521061286,28.7313692594804,0.00380325014359206,-0.000411411329325355,5,15.5,29.9
4.46666666666667,11.7889521061286,28.7313692594804,0.00322859578581216,-0.000574654357779899,5,15.5,29.9
4.5,11.7889521061286,28.7313692594804,0.00253690347548119,-0.000691692310330976,5,15.5,29.9
4.53333333333333,11.7889521061286,28.7313692594804,0.0017770646812342,-0.000759838794246992,5,15.5,29.9
4.56666666666667,11.7889521061286,28.7313692594804,0.000997402486749574,-0.000779662194484622,5,15.5,29.9
4.6,11.7889521061286,28.7313692594804,0.000242788190283903,-0.000754614296465671,5,15.5,29.9
4.63333333333333,11.7889521061286,28.7313692594804,0.000447723550155959,0.000204935359872056,5,15.5,29.9
4.66666666666667,11.7889521061286,28.7313692594804,0.00104264606276982,0.000594922512613865,5,15.5,29.9
4.7,11.7889521061286,28.7313692594804,0.00151915540886287,0.000476509346093046,5,15.5,29.9
4.73333333333333,11.7889521061286,28.7313692594804,0.00186353354161367,0.000344378132750799,5,15.5,29.9
4.76666666666667,11.7889521061286,28.7313692594804,0.00207100651322133,0.000207472971607665,5,15.5,29.9
4.8,11.7889521061286,28.7313692594804,0.002145057623806,7.40511105846611e-05,5,15.5,29.9
4.83333333333333,11.7889521061286,28.7313692594804,0.00209631921997189,-4.8738403834105e-05,5,15.5,29.9
4.86666666666667,11.7889521061286,28.7313692594804,0.00194116092246844,-0.000155158297503446,5,15.5,29.9
4.9,11.7889521061286,28.7313692594804,0.00170009677223212,-0.00024106415023632,5,15.5,29.9
4.93333333333333,11.7889521061286,28.7313692594804,0.00139613007307011,-0.000303966699162012,5,15.5,29.9
4.96666666666667,11.7889521061286,28.7313692594804,0.00105314393631273,-0.000342986136757386,5,15.5,29.9
5,11.7889521061286,28.7313692594804,0.000694429326971131,-0.000358714609341594,5,15.5,29.9
5.03333333333333,11.7889521061286,28.7313692594804,0.000341422527364922,-0.000353006799606209,5,15.5,29.9
5.06666666666667,11.7889521061286,28.7313692594804,1.27021226115147e-05,-0.000328720404753408,5,15.5,29.9
5.1,11.7889521061286,28.7313692594804,0.000276726494626028,0.000264024372014513,5,15.5,29.9
5.13333333333333,11.7889521061286,28.7313692594804,0.000417239651127379,0.000140513156501352,5,15.5,29.9
5.16666666666667,11.7889515748587,28.7317415930529,0.0187180203591825,0.0183007807080552,4,15.5,29.9
5.2,11.7889500405946,28.7328168565585,0.0457560998352933,0.0270380794761108,4,15.5,29.9
5.23333333333333,11.7889470217689,28.7349321070861,0.0810796830519241,0.0353235832166308,4,15.5,29.9
5.26666666666667,11.7889420043763,28.7384462562193,0.129650428487082,0.0485707454351583,4,15.5,29.9
5.3,11.7889346477567,28.7435949072256,0.179114700307169,0.0494642718200861,4,15.5,29.9
5.33333333333333,11.7889249473389,28.7503751392828,0.227523915668908,0.0484092153617394,4,15.5,29.9
5.36666666666667,11.7889129421995,28.7587495529093,0.274769772188976,0.0472458565200679,4,15.5,29.9
5.4,11.7888986664345,28.7686796803694,0.320884030773717,0.046114258584741,4,15.5,29.9
5.43333333333333,11.7888821446861,28.7801286857105,0.365916061701592,0.0450320309278755,4,15.5,29.9
5.46666666666667,11.78886339208,28.7930612324423,0.409905731850088,0.0439896701484961,4,15.5,29.9
5.5,11.7888424147787,28.8074432044457,0.452886172712768,0.0429804408626798,4,15.5,29.9
5.53333333333333,11.7888192109514,28.8232414351093,0.494878150620029,0.0419919779072608,4,15.5,29.9
5.56666666666667,11.7887937728325,28.8404229771482,0.535877219487681,0.0409990688676516,4,15.5,29.9
5.6,11.7887660887261,28.8589547029656,0.57588176401362,0.0400045445259396,4,15.5,29.9
5.63333333333333,11.7887361444799,28.8788035393094,0.614897678335484,0.0390159143218638,4,15.5,29.9
5.66666666666667,11.7887039252895,28.8999366803811,0.652936049657557,0.0380383713220731,4,15.5,29.9
5.7,11.7886694177901,28.9223217419504,0.690012117919259,0.0370760682617022,4,15.5,29.9
5.73333333333333,11.7886326119181,28.9459271343943,0.726165031507263,0.0361529135880035,4,15.5,29.9
5.76666666666667,11.788593501715,28.9707231379938,0.761459858998458,0.0352948274911954,4,15.5,29.9
5.8,11.788552087248,28.9966820624019,0.795950995635495,0.0344911366370366,4,15.5,29.9
5.83333333333333,11.7885083769833,29.0237778635809,0.829682482856874,0.0337314872213793,4,15.5,29.9
5.86666666666667,11.788462389598,29.0519858462312,0.862690721954368,0.0330082390974937,4,15.5,29.9
5.9,11.7884141551483,29.0812824412502,0.895006467336256,0.0323157453818881,4,15.5,29.9
5.93333333333333,11.7883637155892,29.1116450118501,0.926651578148316,0.0316451108120602,4,15.5,29.9
5.96666666666667,11.7883111256462,29.1430509705918,0.957603161940424,0.0309515837921083,4,15.5,29.9
6,11.7882564533689,29.1754766750654,0.987831774879816,0.0302286129393913,4,15.5,29.9
6.03333333333333,11.7881997779584,29.2088977824634,1.01732402036422,0.0294922454844015,4,15.5,29.9
6.06666666666667,11.7881411869541,29.2432896607136,1.04607560545254,0.0287515850883187,4,15.5,29.9
6.1,11.7880807731608,29.2786276618914,1.07409032692499,0.0280147214724542,4,15.5,29.9
6.13333333333333,11.7880186312746,29.3148873754358,1.10137853125817,0.0272882043331781,4,15.5,29.9
6.16666666666667,11.7879548544364,29.3520448106725,1.12795494544549,0.0265764141873253,4,15.5,29.9
6.2,11.787889530811,29.3900765602259,1.15384224822,0.0258873027745061,4,15.5,29.9
6.23333333333333,11.7878227397893,29.4289603363577,1.17908397489466,0.0252417266746598,4,15.5,29.9
6.26666666666667,11.7877545487833,29.4686753409101,1.20372246537659,0.0246384904819283,4,15.5,29.9
6.3,11.7876850113797,29.5092020699901,1.22779317034974,0.0240707049731546,4,15.5,29.9
6.33333333333333,11.7876141661654,29.5505221123782,1.25132627503169,0.0235331046819502,4,15.5,29.9
6.36666666666667,11.7875420362538,29.5926179943997,1.27434790398807,0.0230216289563769,4,15.5,29.9
6.4,11.787468629591,29.6354730593214,1.29688101521484,0.0225331112267695,4,15.5,29.9
6.43333333333333,11.7873939400634,29.6790713725582,1.31894606398213,0.022065048767294,4,15.5,29.9
6.46666666666667,11.7873178621338,29.7233976461081,1.34056149862908,0.0216154346469479,4,15.5,29.9
6.5,11.7872399438683,29.768437176314,1.36174393699855,0.0211824383694679,4,15.5,29.9
6.53333333333333,11.7871596854989,29.8141757067083,1.38250141958339,0.0207574825848453,4,15.5,29.9
6.56666666666667,11.787076656735,29.8605990485769,1.40283275543924,0.0203313358558468,4,15.5,29.9
6.6,11.7869905187828,29.9076930270712,1.42274054344147,0.0199077880022336,4,15.5,29.9
6.63333333333333,11.786901038989,29.9554436150161,1.44223081955802,0.0194902761165481,4,15.5,29.9
6.66666666666667,11.786808097956,30.003837027635,1.46131191020606,0.019081090648041,4,15.5,29.9
6.7,11.786711689168,30.052859784608,1.47999360820423,0.0186816979981654,4,15.5,29.9
6.73333333333333,11.7866119116482,30.1024987486676,1.49828658410306,0.0182929758988302,4,15.5,29.9
6.76666666666667,11.7865089565695,30.1527411474614,1.5162019686479,0.0179153845448434,2,15.5,29.9
6.8,11.7864030890343,30.2035745835871,1.53375105925009,0.0175490906021856,2,15.5,29.9
6.83333333333333,11.78629462643,30.2549870363685,1.55094511606843,0.0171940568183448,2,15.5,29.9
6.86666666666667,11.786183914857,30.3069668579575,1.56779522271314,0.0168501066447022,2,15.5,29.9
