Time,x_ego,y_ego,velocity,acceleration,action,x_ped,y_ped
0,11.8,8.9,5,0,1,15.5,29.9
0.0333333333333333,11.7999927698768,9.06660768882421,4.99642265217009,-0.00357734782991148,1,15.5,29.9
0.0666666666666667,11.7999463865575,9.23309265231607,4.99264802372989,-0.00377462844020027,1,15.5,29.9
0.1,11.7998332672021,9.39944928938782,4.98873299451707,-0.0039150292128225,1,15.5,29.9
0.133333333333333,11.7996375198623,9.56567358967938,4.98471810217162,-0.00401489234544883,1,15.5,29.9
0.166666666666667,11.7993529223375,9.73176267877551,4.98063203798624,-0.00408606418537616,1,15.5,29.9
0.2,11.7989810263308,9.89771449682622,4.97649499947847,-0.0041370385077677,1,15.5,29.9
0.233333333333333,11.7985301495357,10.0635275734696,4.97232134388011,-0.00417365559836291,1,15.5,29.9
0.266666666666667,11.7980109752514,10.2292008672903,4.96812152046431,-0.00419982341580027,1,15.5,29.9
0.3,11.7974343923355,10.3947336495591,4.96390316422578,-0.00421835623852562,1,15.5,29.9
0.333333333333333,11.7968105612401,10.5601254189888,4.95967187501594,-0.00423128920984439,1,15.5,29.9
0.366666666666667,11.7961483888427,10.7253758384961,4.95543175400397,-0.00424012101196602,1,15.5,29.9
0.4,11.7954546732342,10.8904846869726,4.95118590353453,-0.0042458504694407,1,15.5,29.9
0.433333333333333,11.7947319450575,11.0554518192478,4.94693665027021,-0.00424925326431858,1,15.5,29.9
0.466666666666667,11.7939780646918,11.2202771369222,4.94268574088963,-0.00425090938058581,1,15.5,29.9
0.5,11.7931851942845,11.3849605641871,4.93843448858417,-0.00425125230545831,1,15.5,29.9
0.533333333333333,11.7923404457208,11.5495020319915,4.93418395377929,-0.00425053480487936,1,15.5,29.9
0.566666666666667,11.7914267655737,11.7139014663528,4.92993479322345,-0.00424916055584568,1,15.5,29.9
0.6,11.7904295548768,11.8781587981425,4.92568708940429,-0.00424770381915796,1,15.5,29.9
0.633333333333333,11.7893395306092,12.0422739703348,4.92144082302913,-0.00424626637515857,1,15.5,29.9
0.666666666666667,11.7881507007331,12.2062469332024,4.91719587238465,-0.00424495064447594,1,15.5,29.9
0.7,11.7868615182266,12.3700776524925,4.91295191857273,-0.00424395381191989,1,15.5,29.9
0.733333333333333,11.7854743193286,12.5337661139082,4.9087086964616,-0.00424322211113193,1,15.5,29.9
0.766666666666667,11.7839941459298,12.6973123244639,4.90446604218045,-0.00424265428115245,1,15.5,29.9
0.8,11.7824276987976,12.8607163120519,4.90022390625392,-0.00424213592652478,1,15.5,29.9
0.833333333333333,11.7807824309257,13.0239781228799,4.89598234239464,-0.00424156385928764,1,15.5,29.9
0.866666666666667,11.7790657752909,13.1870978169872,4.89174148403986,-0.00424085835477861,1,15.5,29.9
0.9,11.7772845065674,13.3500754624671,4.88750151698253,-0.00423996705732588,1,15.5,29.9
0.933333333333333,11.7754442487049,13.5129111292632,4.88326265236109,-0.00423886462144552,1,15.5,29.9
0.966666666666667,11.7735485744156,13.6756048789842,4.87902529983375,-0.00423735252733426,1,15.5,29.9
1,11.7715968665706,13.8381567430364,4.87478994422909,-0.00423535560465904,1,15.5,29.9
1.03333333333333,11.7695840231729,14.0005667120781,4.87055709511358,-0.00423284911551214,1,15.5,29.9
1.06666666666667,11.7675002574558,14.1628347259546,4.86632701715914,-0.00423007795443731,1,15.5,29.9
1.1,11.7653352364884,14.3249607034774,4.862099436879,-0.00422758028014147,1,15.5,29.9
1.13333333333333,11.763081650827,14.4869445761,4.85787389914313,-0.00422553773587619,1,15.5,29.9
1.16666666666667,11.7607355185058,14.6487862971192,4.8536500172301,-0.00422388191302137,1,15.5,29.9
1.2,11.7582956358145,14.8104858430649,4.84942748538376,-0.00422253184634425,1,15.5,29.9
1.23333333333333,11.7557629547654,14.972043213257,4.84520608796189,-0.004221397421869,1,15.5,29.9
1.26666666666667,11.7531411383938,15.1334584415513,4.84098521801589,-0.00422086994599802,1,15.5,29.9
1.3,11.7504394057019,15.2947316373887,4.83676435361805,-0.00422086439784675,1,15.5,29.9
1.33333333333333,11.7476693293169,15.4558629582593,4.83254352767692,-0.00422082594112716,1,15.5,29.9
1.36666666666667,11.7448429378027,15.616852589379,4.82832297954901,-0.00422054812790762,1,15.5,29.9
1.4,11.7419710602812,15.7777007205098,4.82410328834722,-0.00421969120178822,1,15.5,29.9
1.43333333333333,11.7390612926897,15.9384075127627,4.81988490353081,-0.00421838481641501,1,15.5,29.9
1.46666666666667,11.7361194131167,16.0989731103258,4.81566818118269,-0.00421672234812132,1,15.5,29.9
1.5,11.7331477800819,16.2593976121068,4.81145352285481,-0.00421465832788126,1,15.5,29.9
1.53333333333333,11.7301455417493,16.4196810681349,4.8072411240685,-0.00421239878631052,1,15.5,29.9
1.56666666666667,11.7271095721611,16.5798234887455,4.80303103600543,-0.00421008806307022,1,15.5,29.9
1.6,11.7240353585175,16.7398248555911,4.79882322161825,-0.0042078143871791,1,15.5,29.9
1.63333333333333,11.7209177802021,16.8996851328724,4.79461759598387,-0.00420562563437432,1,15.5,29.9
1.66666666666667,11.7177517493685,17.0594042777225,4.79041405085191,-0.00420354513195775,1,15.5,29.9
1.7,11.7145327011776,17.2189822491025,4.78621246793406,-0.004201582917851,1,15.5,29.9
1.73333333333333,11.7112580884845,17.3784190347031,4.78201237716295,-0.00420009077111505,1,15.5,29.9
1.76666666666667,11.7079309494417,17.5377147170505,4.77781331412163,-0.00419906304132134,1,15.5,29.9
1.8,11.7045578899022,17.6968694651727,4.77361694383244,-0.00419637028918984,1,15.5,29.9
1.83333333333333,11.7011495935561,17.8558837002904,4.76943120409887,-0.00418573973356295,1,15.5,29.9
1.86666666666667,11.6977195901175,18.014758249861,4.7652678914993,-0.00416331259956948,1,15.5,29.9
1.9,11.6942820692679,18.1734943842387,4.761140183677,-0.00412770782229988,1,15.5,29.9
1.93333333333333,11.6908486352492,18.3320937552113,4.75706066592041,-0.00407951775659754,1,15.5,29.9
1.96666666666667,11.6874272459405,18.4905583266743,4.75304007872547,-0.0040205871949377,1,15.5,29.9
2,11.6840205368095,18.6488902627589,4.74908650489299,-0.00395357383247585,1,15.5,29.9
2.03333333333333,11.6806266040182,18.8070918484056,4.74520497692588,-0.00388152796710983,1,15.5,29.9
2.06666666666667,11.6772404490032,18.9651654213297,4.74139763952393,-0.00380733740195449,1,15.5,29.9
2.1,11.6738552692379,19.1231133091315,4.73766406354763,-0.00373357597630264,1,15.5,29.9
2.13333333333333,11.6704640861151,19.280937777807,4.73400119412272,-0.00366286942490746,1,15.5,29.9
2.16666666666667,11.6670623259672,19.4386510693335,4.7316065326845,-0.00239466143822131,1,15.5,29.9
2.2,11.6636465057752,19.5963876553104,4.73645137250151,0.00484483981701711,1,15.5,29.9
2.23333333333333,11.6602139177572,19.7544583419997,4.75184376534128,0.0153923928397646,1,15.5,29.9
2.26666666666667,11.6567628976596,19.913221070505,4.77785871431433,0.0260149489730477,4,15.5,29.9
2.3,11.6532940298209,20.0730113218377,4.81324028816276,0.0353815738484338,4,15.5,29.9
2.33333333333333,11.6498067779935,20.2341140489856,4.85633850650587,0.0430982183431077,4,15.5,29.9
2.36666666666667,11.6463011183471,20.3967601424991,4.90560273896039,0.0492642324545196,4,15.5,29.9
2.4,11.6427779831293,20.5611316996379,4.95964264221749,0.0540399032571068,4,15.5,29.9
2.43333333333333,11.6392385854066,20.7273665587118,5.0172024683043,0.0575598260868038,4,15.5,29.9
2.46666666666667,11.6356820968057,20.8955636562316,5.0772058920484,0.0600034237441003,4,15.5,29.9
2.5,11.6321057505345,21.0657884286926,5.13872330803731,0.0615174159889103,4,15.5,29.9
2.53333333333333,11.628505665158,21.2380784899577,5.20101493359121,0.0622916255539057,4,15.5,29.9
2.56666666666667,11.6248773864094,21.412449090655,5.26348098093555,0.0624660473443335,4,15.5,29.9
2.6,11.6212170509833,21.5888985046,5.32569358314607,0.0622126022105194,4,15.5,29.9
2.63333333333333,11.6175233930558,21.7674124683195,5.3873293354884,0.0616357523423297,4,15.5,29.9
2.66666666666667,11.6137954333977,21.947968724061,5.44823173842339,0.0609024029349881,4,15.5,29.9
2.7,11.6100333066232,22.1305416726278,5.50834206518138,0.0601103267579965,4,15.5,29.9
2.73333333333333,11.6062423296948,22.3151048963064,5.56766151258857,0.0593194474071908,4,15.5,29.9
2.76666666666667,11.6024315180903,22.5016328054097,5.6262307864124,0.058569273823827,4,15.5,29.9
2.8,11.5986167062847,22.690101756223,5.68411845805768,0.0578876716452799,4,15.5,29.9
2.83333333333333,11.5948191284624,22.8804912355946,5.7414393746991,0.0573209166414248,4,15.5,29.9
2.86666666666667,11.5910607647667,23.0727846901497,5.79830051532052,0.0568611406214119,4,15.5,29.9
2.9,11.5873553716931,23.2669679511446,5.85474835108795,0.0564478357674378,4,15.5,29.9
2.93333333333333,11.583708518418,23.4630267120243,5.91072069972151,0.0559723486335546,4,15.5,29.9
2.96666666666667,11.5801201755314,23.6609428868221,5.96609900090029,0.0553783011787772,4,15.5,29.9
3,11.5765869273474,23.8606957760902,6.02084291368739,0.0547439127871003,4,15.5,29.9
3.03333333333333,11.5731036855919,24.0622636077455,6.07492152789377,0.0540786142063832,4,15.5,29.9
3.06666666666667,11.5696649048668,24.2656236670196,6.12831445975394,0.0533929318601727,4,15.5,29.9
3.1,11.5662653383314,24.4707529500515,6.18102122796637,0.0527067682124329,4,15.5,29.9
3.13333333333333,11.562900473005,24.6776285526065,6.233047038527,0.0520258105606208,4,15.5,29.9
3.16666666666667,11.5595667592594,24.8862280573575,6.28441910548308,0.0513720669560795,4,15.5,29.9
3.2,11.5562617089494,25.096530595954,6.33520235431745,0.0507832488343745,4,15.5,29.9
3.23333333333333,11.5529839191156,25.3085180449918,6.3854940942393,0.0502917399218488,4,15.5,29.9
3.26666666666667,11.5497330396543,25.5221761150412,6.43542606998792,0.0499319757486223,4,15.5,29.9
3.3,11.5465096976207,25.7374944126421,6.48506926657017,0.0496431965822444,4,15.5,29.9
3.33333333333333,11.5433154208626,25.9544626375326,6.53437041429085,0.0493011477206844,4,15.5,29.9
3.36666666666667,11.5401524786365,26.173067881326,6.58323945927188,0.0488690449810338,4,15.5,29.9
3.4,11.5370236285704,26.3932949340104,6.63164057159766,0.0484011123257773,4,15.5,29.9
3.43333333333333,11.5339318213948,26.6151285473521,6.67959809265533,0.0479575210576657,4,15.5,29.9
3.46666666666667,11.5308799495661,26.8385545457643,6.72714942746247,0.0475513348071406,4,15.5,29.9
3.5,11.5278688659892,27.0636775331777,6.78440440678232,0.0572549793198514,4,15.5,29.9
3.53333333333333,11.5248939112786,27.2909495942284,6.85450263630849,0.0700982295261712,4,15.5,29.9
3.56666666666667,11.5219527549776,27.5206656356205,6.9300735164887,0.0755708801802122,4,15.5,29.9
3.6,11.5190458387274,27.7529298688867,7.00682500370585,0.0767514872171446,4,15.5,29.9
3.63333333333333,11.5161751123112,27.9877373560654,7.08234143370861,0.07551643000276,4,15.5,29.9
3.66666666666667,11.5133433055741,28.2250238014914,7.15538986668509,0.073048432976484,4,15.5,29.9
3.7,11.5105526317756,28.4646971277864,7.22547892388346,0.0700890571983681,4,15.5,29.9
3.73333333333333,11.5078017538789,28.706656990137,7.29256114101207,0.0670822171286094,4,15.5,29.9
3.76666666666667,11.5050873389599,28.950805633021,7.35681342531598,0.0642522843039153,4,15.5,29.9
3.8,11.5024080457623,29.1970531240082,7.41851073627361,0.061697310957622,4,15.5,29.9
3.83333333333333,11.4997646613101,29.4453193183706,7.47795590343538,0.0594451671617771,4,15.5,29.9
3.86666666666667,11.4971592677466,29.6955341278304,7.53544424455753,0.057488341122145,4,15.5,29.9
3.9,11.4945945684596,29.9476368219359,7.59123696673749,0.055792722179965,4,15.5,29.9
3.93333333333333,11.4920734317296,30.20157451816,7.64553863021843,0.0543016634809428,4,15.5,29.9
3.96666666666667,11.4895986486056,30.457299566333,7.69846157309671,0.0529229428782756,4,15.5,29.9
4,11.4871728357054,30.7147678877294,7.75012816543864,0.0516665923419293,4,15.5,29.9
4.03333333333333,11.4847983996067,30.9739405591058,7.80072099127955,0.0505928258409085,4,15.5,29.9
4.06666666666667,11.4824775551678,31.2347846211868,7.85040099642127,0.0496800051417203,4,15.5,29.9
4.1,11.4802123753251,31.4972714514245,7.89926453172298,0.0488635353017104,4,15.5,29.9
4.13333333333333,11.4780048281461,31.761374777077,7.94736769963929,0.0481031679163157,4,15.5,29.9
4.16666666666667,11.4758567782417,32.0270702171374,7.99476860340935,0.0474009037700505,4,15.5,29.9
4.2,11.473769971364,32.2943352685383,8.04152064067298,0.0467520372636345,4,15.5,29.9
4.23333333333333,11.4717460195022,32.5631490970176,8.08767100204737,0.0461503613743925,4,15.5,29.9
4.26666666666667,11.4697863939664,32.8334923404775,8.1332600221962,0.0455890201488263,4,15.5,29.9
4.3,11.4678924337697,33.1053467016582,8.17831039254539,0.0450503703491947,4,15.5,29.9
4.33333333333333,11.4660653674933,33.378694560523,8.22284478943291,0.0445343968875189,4,15.5,29.9
4.36666666666667,11.4643063400881,33.653519193628,8.26689316973208,0.0440483802991647,4,15.5,29.9
4.4,11.4626164444751,33.9298049475095,8.31049189025887,0.0435987205267896,4,15.5,29.9
4.43333333333333,11.4609967492882,34.2075376834482,8.35369395495002,0.0432020646911582,4,15.5,29.9
4.46666666666667,11.4594483219792,34.4867049648701,8.39654548082114,0.042851525871118,4,15.5,29.9
4.5,11.4579722463728,34.7672957014761,8.43908160189632,0.0425361210751749,4,15.5,29.9
4.53333333333333,11.4565696302085,35.0492997746859,8.48132283719581,0.0422412352994908,4,15.5,29.9
4.56666666666667,11.4552416066296,35.3327072797139,8.52326384323442,0.0419410060386127,4,15.5,29.9
4.6,11.4539893274695,35.6175081448953,8.56490360991456,0.0416397666801434,4,15.5,29.9
4.63333333333333,11.4528139503712,35.9036923999963,8.60624824381785,0.0413446339032824,4,15.5,29.9
4.66666666666667,11.4517166275928,36.1912503270569,8.64730590127279,0.0410576574549406,4,15.5,29.9
4.7,11.4506984989818,36.4801723304494,8.68807226952366,0.0407663682508694,4,15.5,29.9
4.73333333333333,11.4497606898496,36.7704484554393,8.72853589256719,0.0404636230435322,4,15.5,29.9
4.76666666666667,11.4489052889639,37.0620686407177,8.76870210460832,0.040166212041127,4,15.5,29.9
4.8,11.4481384789035,37.3550231338289,8.80858032802499,0.039878223416677,4,15.5,29.9
4.83333333333333,11.4474686402216,37.6493024048806,8.84817471482254,0.0395943867975515,4,15.5,29.9
4.86666666666667,11.4469024699328,37.9448969647273,8.88748202717725,0.0393073123547101,4,15.5,29.9
4.9,11.4464471570997,38.2417968936969,8.92648256231761,0.0390005351403602,4,15.5,29.9
4.93333333333333,11.4461073450667,38.539991763333,8.96516918919226,0.0386866268746502,4,15.5,29.9
4.96666666666667,11.445885404073,38.8394711175216,9.00354616022468,0.0383769710324149,4,15.5,29.9
5,11.4457825422303,39.1402247234528,9.04162199033732,0.0380758301126445,4,15.5,29.9
