Time,x_ego,y_ego,velocity,acceleration,action,x_ped,y_ped
0,11.8,15.9,7,0,1,15.5,29.9
0.0333333333333333,11.8000215727341,16.1332703792222,6.99615600948201,-0.00384399051798745,1,15.5,29.9
0.0666666666666667,11.8001557098538,16.3664065921416,6.99197195098579,-0.00418405849622605,1,15.5,29.9
0.1,11.800471074677,16.5994006963459,6.98770319352583,-0.00426875745996025,1,15.5,29.9
0.133333333333333,11.8009984396637,16.8322535289318,6.98351421858884,-0.00418897493698278,1,15.5,29.9
0.166666666666667,11.8017432312558,17.0649671266802,6.97938141909729,-0.00413279949154965,1,15.5,29.9
0.2,11.8026986166104,17.2975428851772,6.97528766319795,-0.00409375589934413,1,15.5,29.9
0.233333333333333,11.8038525960574,17.5299817624601,6.97122100128938,-0.00406666190856786,1,15.5,29.9
0.266666666666667,11.8051917310075,17.7622844250938,6.96717335990162,-0.00404764138775704,1,15.5,29.9
0.3,11.806702996008,17.9944513473627,6.96313933950194,-0.00403402039968004,1,15.5,29.9
0.333333333333333,11.8083744201495,18.2264828760079,6.95911527904075,-0.00402406046119363,1,15.5,29.9
0.366666666666667,11.8101951469016,18.4583792715445,6.95509862280872,-0.0040166562320314,1,15.5,29.9
0.4,11.8121553711643,18.6901407341642,6.95108753551408,-0.00401108729464372,1,15.5,29.9
0.433333333333333,11.8142463953363,18.9217674193788,6.94708068310576,-0.00400685240831944,1,15.5,29.9
0.466666666666667,11.8164608519854,19.1532594467519,6.94307710668499,-0.00400357642076621,1,15.5,29.9
0.5,11.8187930109721,19.38461690422,6.93907613955812,-0.00400096712686793,1,15.5,29.9
0.533333333333333,11.8212390365043,19.6158398501078,6.93507733974825,-0.00399879980987183,1,15.5,29.9
0.566666666666667,11.8237970741776,19.8469283145832,6.93108042744018,-0.0039969123080672,1,15.5,29.9
0.6,11.8264671051133,20.077882301808,6.92708522747733,-0.00399519996285402,1,15.5,29.9
0.633333333333333,11.8292505752906,20.3087017934543,6.92309162121636,-0.00399360626097156,1,15.5,29.9
0.666666666666667,11.8321498685466,20.5393867536574,6.91909951142231,-0.00399210979404874,1,15.5,29.9
0.7,11.8351677260936,20.7699371349683,6.91510880115581,-0.00399071026649533,1,15.5,29.9
0.733333333333333,11.8383067189542,21.000352884529,6.91111938509902,-0.00398941605678971,1,15.5,29.9
0.766666666666667,11.8415688568511,21.2306339495818,6.9071311504381,-0.00398823466092324,1,15.5,29.9
0.8,11.8449537519568,21.4607803002867,6.90314351893814,-0.00398763149995851,1,15.5,29.9
0.833333333333333,11.8484516167827,21.6907920200828,6.89915531277787,-0.00398820616026985,1,15.5,29.9
0.866666666666667,11.8520295958933,21.9206695007316,6.89516320500726,-0.00399210777061665,1,15.5,29.9
0.9,11.8556082870064,22.1504137989506,6.89116648688803,-0.00399671811922264,1,15.5,29.9
0.933333333333333,11.8590906013114,22.3800263227644,6.88717003562275,-0.00399645126528192,1,15.5,29.9
0.966666666666667,11.8623871879796,22.6095084432665,6.88317980435088,-0.00399023127186826,1,15.5,29.9
1,11.8654304615422,22.8388611962288,6.87919922922297,-0.00398057512791095,1,15.5,29.9
1.03333333333333,11.8681865992132,23.0680850333258,6.87522720553016,-0.00397202369281313,1,15.5,29.9
1.06666666666667,11.8706502497679,23.2971798824515,6.8712598623036,-0.00396734322655679,1,15.5,29.9
1.1,11.872834285216,23.5261453404261,6.86729320154599,-0.00396666075761587,1,15.5,29.9
1.13333333333333,11.87476375332,23.7549808316396,6.86332446125475,-0.00396874029123762,1,15.5,29.9
1.16666666666667,11.8764697663145,23.9836857538067,6.85935256968,-0.00397189157475353,1,15.5,29.9
1.2,11.8779849773304,24.2122595711423,6.85537768201725,-0.00397488766274634,1,15.5,29.9
1.23333333333333,11.8793411788143,24.4407018506128,6.85140055710409,-0.00397712491315438,1,15.5,29.9
1.26666666666667,11.8805670399773,24.66901227356,6.84742235820707,-0.00397819889702333,1,15.5,29.9
1.3,11.8816847489186,24.8971906421974,6.84344419023604,-0.0039781679710309,1,15.5,29.9
1.33333333333333,11.882710171563,25.1252368481708,6.83946673203323,-0.00397745820280893,1,15.5,29.9
1.36666666666667,11.8836537470677,25.3531508419597,6.83549035578426,-0.00397637624896774,1,15.5,29.9
1.4,11.8845211801253,25.5809326123879,6.83151525310477,-0.00397510267949208,1,15.5,29.9
1.43333333333333,11.8853140584644,25.8085821729686,6.82754152168638,-0.00397373141838742,1,15.5,29.9
1.46666666666667,11.8860305379259,26.0360995519338,6.82356920993647,-0.00397231174991397,1,15.5,29.9
1.5,11.8866661763034,26.2634847839623,6.81959833325661,-0.0039708766798574,1,15.5,29.9
1.53333333333333,11.8872149075618,26.4907379029265,6.81562887671163,-0.00396945654498726,1,15.5,29.9
1.56666666666667,11.8876700698315,26.7178589359177,6.81166079407285,-0.00396808263877357,1,15.5,29.9
1.6,11.8880253584523,26.9448478991679,6.80769400827732,-0.003966785795531,1,15.5,29.9
1.63333333333333,11.8882763998644,27.1717047931818,6.80372821588912,-0.00396579238819772,1,15.5,29.9
1.66666666666667,11.8884246853332,27.3984295934139,6.79976283637587,-0.00396537951325548,1,15.5,29.9
1.7,11.8884803906857,27.6250222541044,6.79579720829105,-0.00396562808482059,1,15.5,29.9
1.73333333333333,11.8884628694423,27.8514827243217,6.79183099207746,-0.00396621621358229,1,15.5,29.9
1.76666666666667,11.8883972709764,28.0778109709041,6.7878643517379,-0.00396664033956728,1,15.5,29.9
1.8,11.8883113505866,28.3040069892362,6.78389779768677,-0.00396655405113044,1,15.5,29.9
1.83333333333333,11.8882322672378,28.5300708035292,6.77993210552977,-0.00396569215699838,1,15.5,29.9
1.86666666666667,11.8881826126126,28.7560024604104,6.77596794462182,-0.00396416090795348,1,15.5,29.9
1.9,11.8881787802122,28.9818020160374,6.77200577775404,-0.0039621668677734,1,15.5,29.9
1.93333333333333,11.8882267853418,29.207469529038,6.76804565937616,-0.00396011837787835,1,15.5,29.9
1.96666666666667,11.8883245924743,29.4330050520985,6.76408727916985,-0.00395838020631523,1,15.5,29.9
2,11.8884655217441,29.6584086302594,6.76013027329177,-0.00395700587807468,1,15.5,29.9
2.03333333333333,11.8886415317507,29.8836803024572,6.75617436221139,-0.00395591108038396,1,15.5,29.9
2.06666666666667,11.8888466988733,30.1088201024016,6.75221940252239,-0.00395495968899606,1,15.5,29.9
2.1,11.8890748219602,30.3338280630464,6.74826532119781,-0.00395408132458197,1,15.5,29.9
2.13333333333333,11.8893193138775,30.5587042178011,6.74431207858536,-0.00395324261245378,1,15.5,29.9
2.16666666666667,11.8895738636088,30.783448600323,6.74035965951776,-0.00395241906759392,1,15.5,29.9
2.2,11.8898329277184,31.0080612440129,6.73640806359033,-0.00395159592743788,1,15.5,29.9
2.23333333333333,11.8900920613051,31.2325421814744,6.73245729711858,-0.00395076647174886,1,15.5,29.9
2.26666666666667,11.8903480893593,31.4568914441238,6.72850736745905,-0.00394992965952312,1,15.5,29.9
2.3,11.8905991230413,31.6811090620335,6.72455827974687,-0.00394908771218194,1,15.5,29.9
2.33333333333333,11.8908444785702,31.9051950639564,6.72061003592408,-0.0039482438227898,1,15.5,29.9
2.36666666666667,11.8910845421866,32.1291494774612,6.7166626348158,-0.00394740110828007,1,15.5,29.9
2.4,11.8913211259722,32.3529723285758,6.71271607403708,-0.00394656077871769,1,15.5,29.9
2.43333333333333,11.8915589847161,32.5766636402106,6.70877035178876,-0.00394572224832768,1,15.5,29.9
2.46666666666667,11.8918029890333,32.8002234350953,6.70482547357825,-0.00394487821050937,1,15.5,29.9
2.5,11.8920606271032,33.0236517329878,6.70088146633819,-0.00394400724005628,1,15.5,29.9
2.53333333333333,11.892343508971,33.2469485485357,6.69693838919708,-0.00394307714110731,1,15.5,29.9
2.56666666666667,11.8926639790664,33.4701138937354,6.69299633093484,-0.00394205826224781,1,15.5,29.9
2.6,11.8930347742771,33.6931477766256,6.68905534588555,-0.00394098504928309,1,15.5,29.9
2.63333333333333,11.8934631837441,33.9160502067779,6.68511536146273,-0.00393998442282495,1,15.5,29.9
2.66666666666667,11.8939512891584,34.138821195991,6.6811762502564,-0.00393911120632673,1,15.5,29.9
2.7,11.8944978856884,34.3614607581943,6.67723789580716,-0.00393835444924484,1,15.5,29.9
2.73333333333333,11.8950999891358,34.583968909891,6.67330022885214,-0.00393766695501707,1,15.5,29.9
2.76666666666667,11.8957538754834,34.8063456705123,6.66936323000427,-0.00393699884786436,1,15.5,29.9
2.8,11.8964557093681,35.0285910624054,6.66542691395028,-0.00393631605399936,1,15.5,29.9
2.83333333333333,11.8972018725475,35.2507051104591,6.66149131058532,-0.00393560336495824,1,15.5,29.9
2.86666666666667,11.8979891113935,35.4726878414915,6.65755645145292,-0.00393485913239378,1,15.5,29.9
2.9,11.8988145995286,35.6945392835233,6.65362236321668,-0.00393408823624686,1,15.5,29.9
2.93333333333333,11.899675974958,35.9162594650249,6.6496890663554,-0.0039332968612813,1,15.5,29.9
2.96666666666667,11.9005713748181,36.1378484141985,6.64575657643487,-0.00393248992052353,1,15.5,29.9
3,11.9014994645659,36.3593061583569,6.64182490588182,-0.00393167055305454,1,15.5,29.9
3.03333333333333,11.9024586814591,36.5806327259756,6.63789399437476,-0.00393091150706137,1,15.5,29.9
3.06666666666667,11.9034446549885,36.8018281558027,6.63396375988039,-0.00393023449436924,1,15.5,29.9
3.1,11.9044498709207,37.0228925002116,6.63003412819642,-0.00392963168396321,1,15.5,29.9
3.13333333333333,11.9054615293614,37.2438258352014,6.62610503355231,-0.00392909464410973,1,15.5,29.9
3.16666666666667,11.9064611311369,37.4646282643673,6.62217661846018,-0.00392841509213149,1,15.5,29.9
3.2,11.9074294204512,37.6852998998329,6.61824917690881,-0.00392744155136793,1,15.5,29.9
3.23333333333333,11.9083490912652,37.90584084727,6.61432297919989,-0.00392619770892022,1,15.5,29.9
3.26666666666667,11.909208411923,38.1262511861645,6.61039812585174,-0.00392485334815795,1,15.5,29.9
3.3,11.9100031922681,38.3465309586898,6.60647448352984,-0.00392364232189824,1,15.5,29.9
3.33333333333333,11.9107347150276,38.5666801786718,6.60255182582853,-0.0039226577013034,1,15.5,29.9
3.36666666666667,11.9114073516369,38.7866988443969,6.59862996570418,-0.0039218601243558,1,15.5,29.9
3.4,11.9120268978114,39.0065869487022,6.59470880007989,-0.00392116562428679,1,15.5,29.9
3.43333333333333,11.912599539932,39.2263444853815,6.5907882985904,-0.00392050148949252,1,15.5,29.9
3.46666666666667,11.9131312795264,39.4459714523704,6.58686847382902,-0.00391982476138075,1,15.5,29.9
