Time,x_ego,y_ego,velocity,acceleration,action,x_ped,y_ped
0,11.8,8.9,5,0,1,15.5,29.9
0.0333333333333333,11.7999818945857,9.06660768873106,4.99642285128503,-0.00357714871497006,1,15.5,29.9
0.0666666666666667,11.799865743053,9.23309264810776,4.99265042668619,-0.00377242459884464,1,15.5,29.9
0.1,11.7995824729689,9.39944924966573,4.9887419196695,-0.00390850701668999,1,15.5,29.9
0.133333333333333,11.7990922872552,9.56567340607109,4.98473831024712,-0.00400360942237565,1,15.5,29.9
0.166666666666667,11.7983796029005,9.73176210826799,4.98066668968425,-0.00407162056286481,1,15.5,29.9
0.2,11.7974468389775,9.89771312047386,4.97654478204517,-0.00412190763908615,1,15.5,29.9
0.233333333333333,11.7963083529346,10.0635247852841,4.9723846507699,-0.00416013127526771,1,15.5,29.9
0.266666666666667,11.7949853014197,10.229195895757,4.96819516051402,-0.00418949025588056,1,15.5,29.9
0.3,11.7935023381393,10.3947256049469,4.96398299463416,-0.00421216587986173,1,15.5,29.9
0.333333333333333,11.7918863543973,10.5601133582479,4.95975372617999,-0.00422926845416693,1,15.5,29.9
0.366666666666667,11.7901627809541,10.7253588251649,4.95551202287294,-0.00424170330704765,1,15.5,29.9
0.4,11.7883551960178,10.8904618440372,4.95126179484413,-0.00425022802880992,1,15.5,29.9
0.433333333333333,11.7864823937121,11.0554223596865,4.94700645028322,-0.00425534456091281,1,15.5,29.9
0.466666666666667,11.7845575178468,11.2202403733319,4.94274856126393,-0.00425788901929369,1,15.5,29.9
0.5,11.7825881998229,11.3849159066252,4.93848998168291,-0.00425857958101439,1,15.5,29.9
0.533333333333333,11.7805769866375,11.549448977348,4.93423198887833,-0.0042579928045825,1,15.5,29.9
0.566666666666667,11.7785220448761,11.7138395854502,4.92997541848627,-0.00425657039205962,1,15.5,29.9
0.6,11.7764181193235,11.8780877076384,4.9257207783561,-0.00425464013017418,1,15.5,29.9
0.633333333333333,11.7742576869907,12.0421932986085,4.92146833738919,-0.00425244096690314,1,15.5,29.9
0.666666666666667,11.7720322013748,12.2061562970311,4.91721819013414,-0.00425014725505068,1,15.5,29.9
0.7,11.769733289187,12.3699766344094,4.91297030134574,-0.00424788878840054,1,15.5,29.9
0.733333333333333,11.7673537568666,12.533654244933,4.90872453795171,-0.00424576339403426,1,15.5,29.9
0.766666666666667,11.7648882908784,12.6971890745249,4.90448069761425,-0.00424384033745806,1,15.5,29.9
0.8,11.7623337879496,12.8605810875513,4.90023854124257,-0.00424215637167968,1,15.5,29.9
0.833333333333333,11.7596893159509,13.0238302701815,4.89599783123846,-0.00424071000411086,1,15.5,29.9
0.866666666666667,11.7569557674649,13.1869366300917,4.89175837053088,-0.0042394607075753,1,15.5,29.9
0.9,11.7541353126056,13.3499001929579,4.88752003333922,-0.00423833719166034,1,15.5,29.9
0.933333333333333,11.751230777029,13.5127209967737,4.88328277942507,-0.00423725391415797,1,15.5,29.9
0.966666666666667,11.748245063783,13.6753990853425,4.87904664872097,-0.00423613070409434,1,15.5,29.9
1,11.7451813121796,13.83793451077,4.87481148238794,-0.004235166333034,1,15.5,29.9
1.03333333333333,11.7420440980828,14.0003273517752,4.87057728815137,-0.00423419423656668,1,15.5,29.9
1.06666666666667,11.7388375072625,14.1625776884588,4.86634414527602,-0.00423314287535348,1,15.5,29.9
1.1,11.7355671481438,14.324685632493,4.86211172418761,-0.0042324210884086,1,15.5,29.9
1.13333333333333,11.7322410358383,14.4866513446572,4.85788018255933,-0.0042315416282781,1,15.5,29.9
1.16666666666667,11.7288653026479,14.6484749689995,4.85364989521859,-0.00423028734074204,1,15.5,29.9
1.2,11.7254461542101,14.8101566605264,4.84942073389007,-0.00422916132852169,1,15.5,29.9
1.23333333333333,11.7219911125212,14.9716966056541,4.8451929325156,-0.00422780137446654,1,15.5,29.9
1.26666666666667,11.7185050547004,15.1330949533095,4.84096684278643,-0.00422608972917349,1,15.5,29.9
1.3,11.7149917982741,15.2943518372951,4.83674250071958,-0.00422434206684752,1,15.5,29.9
1.33333333333333,11.7114548445806,15.4554673874534,4.83251993006605,-0.00422257065353371,1,15.5,29.9
1.36666666666667,11.7078973009629,15.6164417274153,4.82829914615958,-0.00422078390646163,1,15.5,29.9
1.4,11.7043219726562,15.7772749756983,4.82408015245976,-0.00421899369982803,1,15.5,29.9
1.43333333333333,11.7007313706657,15.9379672455285,4.81986295911231,-0.00421719334745063,1,15.5,29.9
1.46666666666667,11.6971270869627,16.0985186322967,4.81564770949164,-0.004215249620664,1,15.5,29.9
1.5,11.6935079514348,16.2589291757479,4.81143456438987,-0.00421314510177151,1,15.5,29.9
1.53333333333333,11.6898705160121,16.4191988665481,4.80722355282937,-0.00421101156050074,1,15.4916666666667,29.9
1.56666666666667,11.6862101216438,16.579327665846,4.80301462689217,-0.00420892593719735,1,15.4666666666667,29.9
1.6,11.68252178664,16.7393155227699,4.79880770192445,-0.00420692496772013,1,15.425,29.9
1.63333333333333,11.6788014524204,16.8991624005438,4.79460255608105,-0.00420514584339937,1,15.3752276867031,29.9
1.66666666666667,11.675047836841,17.0588683170452,4.79039903023011,-0.00420352585094097,1,15.3259107468124,29.9
1.7,11.6712602502348,17.2184333014628,4.78619711922,-0.00420191101011014,1,15.2770491803279,29.9
1.73333333333333,11.6674380082201,17.3778573823821,4.78199681473045,-0.00420030448955,1,15.2286429872495,29.9
1.76666666666667,11.6635805081192,17.5371405895337,4.77779810582526,-0.00419870890518936,1,15.1806921675774,29.9
1.8,11.6596872898433,17.6962829552761,4.77360097967276,-0.00419712615250578,1,15.1331967213115,29.9
1.83333333333333,11.6557580746933,17.8552845156415,4.76940542256594,-0.00419555710681419,1,15.0861566484517,29.9
1.86666666666667,11.6517933394356,18.0141453235102,4.76521130313255,-0.00419411943339121,1,15.0395719489982,29.9
1.9,11.6477956693017,18.1728654803729,4.76101855277586,-0.00419275035668676,1,14.9934426229508,29.9
1.93333333333333,11.6437674768055,18.3314450861077,4.75682724971012,-0.004191303065741,1,14.9477686703097,29.9
1.96666666666667,11.6397103649534,18.4898842238384,4.75263746023609,-0.0041897894740357,1,14.9025500910747,29.9
2,11.6356252145376,18.6481829609537,4.74844923332222,-0.00418822691386556,1,14.8577868852459,29.9
2.03333333333333,11.6315123183279,18.8063413514017,4.74426260029955,-0.00418663302267053,1,14.8134790528233,29.9
2.06666666666667,11.6273715291155,18.9643594385473,4.74007757750238,-0.00418502279717448,1,14.7696265938069,29.9
2.1,11.6232024002923,19.122237258094,4.73589417000174,-0.00418340750063528,1,14.7262295081967,29.9
2.13333333333333,11.6190043082872,19.2799748407815,4.7317123752203,-0.0041817947814371,1,14.6832877959927,29.9
2.16666666666667,11.614776553874,19.4375722147452,4.72753218583642,-0.00418018938388887,1,14.6408014571949,29.9
2.2,11.6105184435411,19.5950294075202,4.72335359183594,-0.00417859400047949,1,14.5987704918033,29.9
2.23333333333333,11.6062293532645,19.7523464477079,4.71917658183644,-0.0041770099995011,1,14.5571948998179,29.9
2.26666666666667,11.6019087762911,19.9095233663107,4.71500114392465,-0.00417543791178066,1,14.5160746812386,29.9
2.3,11.5975563552041,20.0665601977112,4.71082726625586,-0.00417387766879784,1,14.4754098360656,29.9
2.33333333333333,11.5931719069733,20.2234566170516,4.70663313875412,-0.00419412750173453,1,14.4352003642987,29.9
2.36666666666667,11.5887606325616,20.380010364025,4.69032039478623,-0.0163127439678874,1,14.3954462659381,29.9
2.4,11.5843332322113,20.5358180089548,4.66191267121107,-0.0284077235751612,3,14.3561475409836,29.9
2.43333333333333,11.579902344127,20.6904188228146,4.61794652126207,-0.0439661499490036,3,14.3173041894353,29.9
2.46666666666667,11.5754818687582,20.8433231394089,4.56014767677797,-0.0577988444841013,3,14.2789162112933,29.9
2.5,11.5710860506451,20.9940701401666,4.48851997274271,-0.0716277040352553,3,14.2409836065574,29.9
2.53333333333333,11.5667292711565,21.142285649164,4.40825574511679,-0.0802642276259231,3,14.2035063752277,29.9
2.56666666666667,11.5624265720561,21.2875956395794,4.31417053836357,-0.0940852067532152,3,14.1664845173042,29.9
2.6,11.5581958202145,21.4295688707015,4.20801256489115,-0.106157973472424,3,14.1299180327869,29.9
2.63333333333333,11.554053397383,21.5678029150176,4.08976431361345,-0.118248251277705,3,14.0938069216758,29.9
2.66666666666667,11.5500161474803,21.7018377054026,3.95598575641964,-0.133778557193804,3,14.0581511839709,29.9
2.7,11.5460968133512,21.8313287875546,3.81705772181042,-0.138928034609221,3,14.0229508196721,29.9
2.73333333333333,11.5423034473606,21.9560759972029,3.6712611713472,-0.145796550463225,3,13.9882058287796,29.9
2.76666666666667,11.5386444221577,22.0758502046893,3.51857699110293,-0.152684180244265,3,13.9539162112933,29.9
2.8,11.5351261670666,22.1904801102616,3.36249532219101,-0.156081668911924,3,13.9200819672131,29.9
2.83333333333333,11.5317524728721,22.299880921629,3.20471806098836,-0.157777261202649,3,13.9200819672131,29.9
2.86666666666667,11.5285290968048,22.4039101667472,3.04007984667538,-0.164638214312977,3,13.9200819672131,29.9
2.9,11.5254648642667,22.5023680869655,2.87030428758909,-0.169775559086291,3,13.9200819672131,29.9
2.93333333333333,11.5225668933999,22.5951123582326,2.69711505964484,-0.173189227944245,3,13.9200819672131,29.9
2.96666666666667,11.5198410178216,22.6820293802325,2.52051359095988,-0.176601468684965,3,13.9200819672131,29.9
3,11.5172918561408,22.7630346342059,2.34224521438561,-0.178268376574271,3,13.9200819672131,29.9
3.03333333333333,11.5149237082452,22.8380438327088,2.16061461265067,-0.181630601734937,3,13.9200819672131,29.9
3.06666666666667,11.5127410228232,22.9069584340776,1.9767144185033,-0.183900194147375,3,13.9200819672131,29.9
3.1,11.5107465705143,22.9697307199393,1.79202917089068,-0.184685247612622,3,13.9200819672131,29.9
3.13333333333333,11.5089420903173,23.0263432166826,1.60697684180567,-0.185052329085007,3,13.9200819672131,29.9
3.16666666666667,11.5073281091946,23.0768152628488,1.42344433303849,-0.183532508767174,3,13.9200819672131,29.9
3.2,11.5059057641904,23.1211415559967,1.23806695318831,-0.185377379850179,3,13.9200819672131,29.9
3.23333333333333,11.5046760048583,23.1593191131135,1.05435192913905,-0.183715024049266,3,13.9200819672131,29.9
3.26666666666667,11.5036370004249,23.1914345741274,0.874214782305791,-0.180137146833258,3,13.9200819672131,29.9
3.3,11.5027865684497,23.2175822631658,0.696114909404533,-0.178099872901258,3,13.9200819672131,29.9
3.33333333333333,11.502121509938,23.2378864810403,0.523442261609659,-0.172672647794874,3,13.9200819672131,29.9
3.36666666666667,11.5016376479181,23.2525003786544,0.354558852695634,-0.168883408914025,3,13.9200819672131,29.9
3.4,11.5013314880972,23.2615505633532,0.189475539527492,-0.165083313168142,3,13.9200819672131,29.9
3.43333333333333,11.5011994574253,23.2651630082215,0.0285423338004231,-0.160933205727069,3,13.9200819672131,29.9
3.46666666666667,11.5012230146122,23.2639616326727,0.0575224433613557,0.0289801095609327,4,13.9200819672131,29.9
3.5,11.5012783678105,23.2620512174139,0.00493693058772695,-0.0525855127736288,3,13.9200819672131,29.9
3.53333333333333,11.5012783678105,23.2620512174139,0.00581568430089501,0.000878753713168058,5,13.9200819672131,29.9
3.56666666666667,11.5012783678105,23.2620512174139,0.00720114014824682,0.00138545584735181,5,13.9200819672131,29.9
3.6,11.5012783678105,23.2620512174139,0.00895143830649285,0.00175029815824603,5,13.9200819672131,29.9
3.63333333333333,11.5012783678105,23.2620512174139,0.0108672068962266,0.00191576858973374,5,13.9200819672131,29.9
3.66666666666667,11.5012783678105,23.2620512174139,0.0127237902981312,0.00185658340190461,5,13.9200819672131,29.9
3.7,11.5012783678105,23.2620512174139,0.0143006664087574,0.00157687611062619,5,13.9200819672131,29.9
3.73333333333333,11.5012783678105,23.2620512174139,0.0154059554243168,0.00110528901555939,5,13.9200819672131,29.9
3.76666666666667,11.5012783678105,23.2620512174139,0.0158946754010088,0.000488719976691978,5,13.9200819672131,29.9
3.8,11.5012783678105,23.2620512174139,0.0156801295220608,-0.000214545878947939,5,13.9200819672131,29.9
3.83333333333333,11.5012783678105,23.2620512174139,0.0147384661114265,-0.000941663410634345,5,13.9200819672131,29.9
3.86666666666667,11.5012783678105,23.2620512174139,0.0131069982537262,-0.00163146785770032,5,13.9200819672131,29.9
3.9,11.5012783678105,23.2620512174139,0.010877282839641,-0.00222971541408519,5,13.9200819672131,29.9
3.93333333333333,11.5012783678105,23.2620512174139,0.00818422977203567,-0.00269305306760531,5,13.9200819672131,29.9
3.96666666666667,11.5012783678105,23.2620512174139,0.00519264357311176,-0.00299158619892391,5,13.9200819672131,29.9
4,11.5012783678105,23.2620512174139,0.00208260404050382,-0.00311003953260794,5,13.9200819672131,29.9
4.03333333333333,11.5012783678105,23.2620512174139,0.000965010553071064,-0.00111759348743276,5,13.9200819672131,29.9
4.06666666666667,11.5012783678105,23.2620512174139,0.00378174073530719,0.00281673018223612,5,13.9200819672131,29.9
4.1,11.5012783678105,23.2620512174139,0.00622263007746507,0.00244088934215788,5,13.9200819672131,29.9
4.13333333333333,11.5012783678105,23.2620512174139,0.008174576952606,0.00195194687514093,5,13.9200819672131,29.9
4.16666666666667,11.5012783678105,23.2620512174139,0.00956163449209633,0.00138705753949033,5,13.9200819672131,29.9
4.2,11.5012783678105,23.2620512174139,0.0103472044495841,0.000785569957487815,5,13.9200819672131,29.9
4.23333333333333,11.5012783678105,23.2620512174139,0.0105333036895405,0.000186099239956347,5,13.9200819672131,29.9
4.26666666666667,11.5012783678105,23.2620512174139,0.0101572709030851,-0.000376032786455342,5,13.9200819672131,29.9
4.3,11.5012783678105,23.2620512174139,0.00928641872491788,-0.000870852178167267,5,13.9200819672131,29.9
4.33333333333333,11.5012783678105,23.2620512174139,0.00801122015331269,-0.00127519857160519,5,13.9200819672131,29.9
4.36666666666667,11.5012783678105,23.2620512174139,0.00643764966524423,-0.00157357048806846,5,13.9200819672131,29.9
4.4,11.5012783678105,23.2620512174139,0.00467928367690565,-0.00175836598833859,5,13.9200819672131,29.9
4.43333333333333,11.5012783678105,23.2620512174139,0.00284970958085434,-0.00182957409605131,5,13.9200819672131,29.9
4.46666666666667,11.5012783678105,23.2620512174139,0.0010557067018004,-0.00179400287905394,5,13.9200819672131,29.9
4.5,11.5012783678105,23.2620512174139,0.000608443859655404,-0.000447262842144991,5,13.9200819672131,29.9
4.53333333333333,11.5012783678105,23.2620512174139,0.00206528040948465,0.00145683654982924,5,13.9200819672131,29.9
4.56666666666667,11.5012783678105,23.2620512174139,0.00325699089196275,0.0011917104824781,5,13.9200819672131,29.9
4.6,11.5012783678105,23.2620512174139,0.00414674145672678,0.000889750564764027,5,13.9200819672131,29.9
4.63333333333333,11.5012783678105,23.2620512174139,0.00471859057343927,0.000571849116712497,5,13.9200819672131,29.9
4.66666666666667,11.5012783678105,23.2620512174139,0.00497615579211047,0.000257565218671194,5,13.9200819672131,29.9
4.7,11.5012783678105,23.2620512174139,0.00494025923301058,-3.58965590998859e-05,5,13.9200819672131,29.9
4.73333333333333,11.5012783678105,23.2620512174139,0.00464581488716631,-0.000294444345844275,5,13.9200819672131,29.9
4.76666666666667,11.5012783678105,23.2620512174139,0.00413823631830877,-0.000507578568857536,5,13.9200819672131,29.9
4.8,11.5012783678105,23.2620512174139,0.00346963921355832,-0.000668597104750451,5,13.9200819672131,29.9
4.83333333333333,11.5012783678105,23.2620512174139,0.00269509229071891,-0.000774546922839407,5,13.9200819672131,29.9
4.86666666666667,11.5012783678105,23.2620512174139,0.00186913588594862,-0.00082595640477029,5,13.9200819672131,29.9
4.9,11.5012783678105,23.2620512174139,0.00104274403374561,-0.000826391852203014,5,13.9200819672131,29.9
4.93333333333333,11.5012783678105,23.2620512174139,0.000260856990410837,-0.00078188704333477,5,13.9200819672131,29.9
4.96666666666667,11.5012783678105,23.2620512174139,0.000439439281181286,0.000178582290770449,5,13.9200819672131,29.9
5,11.5012783678105,23.2620512174139,0.00103005879261653,0.000590619511435242,5,13.9200819672131,29.9
5.03333333333333,11.5012783678105,23.2620512174139,0.00149240257075916,0.000462343778142634,5,13.9200819672131,29.9
5.06666666666667,11.5012783678105,23.2620512174139,0.00181724061959256,0.000324838048833397,5,13.9200819672131,29.9
5.1,11.5012783678105,23.2620512174139,0.00200407161902388,0.000186830999431319,5,13.9200819672131,29.9
5.13333333333333,11.5012783678105,23.2620512174139,0.00196145117614323,-4.26204428806472e-05,5,13.9200819672131,29.9
5.16666666666667,11.5012524085117,23.2629184635347,0.051742982102161,0.0497815309260178,4,13.9200819672131,29.9
5.2,11.501175359991,23.2654924390063,0.102685889303763,0.0509429072016021,4,13.9200819672131,29.9
5.23333333333333,11.5010478337009,23.269752044163,0.152855671220986,0.0501697819172228,4,13.9200819672131,29.9
5.26666666666667,11.500870690159,23.2756668935887,0.202012087214172,0.0491564159931858,4,13.9200819672131,29.9
5.3,11.5006449416661,23.2832002364783,0.250000512948819,0.0479884257346475,4,13.9200819672131,29.9
5.33333333333333,11.5003716454472,23.2923122352729,0.296797484488039,0.04679697153922,4,13.9200819672131,29.9
5.36666666666667,11.5000517722883,23.3029641441468,0.342461940128288,0.0456644556402485,4,13.9200819672131,29.9
5.4,11.4996861779145,23.3151191472831,0.387044290229495,0.044582350101207,4,13.9200819672131,29.9
5.43333333333333,11.499275613807,23.3287419815627,0.430585430252616,0.0435411400231212,4,13.9200819672131,29.9
5.46666666666667,11.4988207389379,23.3437986384538,0.4731184954709,0.0425330652182839,4,13.9200819672131,29.9
5.5,11.4983221406878,23.3602558727733,0.514653503903224,0.0415350084323238,4,13.9200819672131,29.9
5.53333333333333,11.49778036775,23.3780804233814,0.555187435507758,0.040533931604534,4,13.9200819672131,29.9
5.56666666666667,11.4971959431752,23.3972390023443,0.594724615971442,0.039537180463684,4,13.9200819672131,29.9
5.6,11.4965693727932,23.4176985282377,0.633275245531499,0.0385506295600569,4,13.9200819672131,29.9
5.63333333333333,11.4959011575292,23.4394262964959,0.670853410069365,0.0375781645378659,4,13.9200819672131,29.9
5.66666666666667,11.4951918071707,23.4623901400233,0.707481455079047,0.0366280450096824,4,13.9200819672131,29.9
5.7,11.494441835852,23.486559205329,0.743217487238413,0.0357360321593655,4,13.9200819672131,29.9
5.73333333333333,11.4936517554742,23.5119047657668,0.778122806838009,0.0349053195995963,4,13.9200819672131,29.9
5.76666666666667,11.4928220997574,23.5383999449886,0.812246424681388,0.0341236178433793,4,13.9200819672131,29.9
5.8,11.4919534474968,23.5660193673905,0.845628335431706,0.0333819107503184,4,13.9200819672131,29.9
5.83333333333333,11.4910464393051,23.5947388981719,0.878301929323342,0.0326735938916358,4,13.9200819672131,29.9
5.86666666666667,11.4901017879213,23.6245354477627,0.910295844785735,0.0319939154623931,4,13.9200819672131,29.9
5.9,11.4891202881763,23.6553866231709,0.941613834097038,0.0313179893113023,4,13.9200819672131,29.9
5.93333333333333,11.4881028524467,23.6872693640896,0.972221177907542,0.0306073438105042,4,13.9200819672131,29.9
5.96666666666667,11.4870505093536,23.7201596363947,1.00209718383207,0.0298760059245307,4,13.9200819672131,29.9
6,11.4859643733607,23.7540329378538,1.03123357890153,0.0291363950694581,4,13.9200819672131,29.9
6.03333333333333,11.4848456160352,23.7888646143781,1.05963003831575,0.0283964594142225,4,13.9200819672131,29.9
6.06666666666667,11.4836954356613,23.8246301262027,1.08729392033961,0.0276638820238548,4,13.9200819672131,29.9
6.1,11.4825150261948,23.8613052685244,1.11423796358844,0.0269440432488341,4,13.9200819672131,29.9
6.13333333333333,11.4813055475359,23.8988663239801,1.14047912710129,0.0262411635128483,4,13.9200819672131,29.9
6.16666666666667,11.4800680921213,23.9372903576173,1.16605066536904,0.0255715382677477,4,13.9200819672131,29.9
6.2,11.4788036440801,23.9765558230891,1.19099792640044,0.0249472610314041,4,13.9200819672131,29.9
6.23333333333333,11.4775130594374,24.0166425870261,1.21535969470188,0.0243617683014352,4,13.9200819672131,29.9
6.26666666666667,11.4761970585401,24.0575317038466,1.23916870574519,0.0238090110433136,4,13.9200819672131,29.9
