Time,x_ego,y_ego,velocity,acceleration,action,x_ped,y_ped
0,11.8,8.9,5,0,1,15.5,29.9
0.0333333333333333,11.8000097327926,9.06660768880986,4.99642268284877,-0.00357731715122966,1,15.5,29.9
0.0666666666666667,11.8000721714634,9.23309265166767,4.99264839396526,-0.00377428888350639,1,15.5,29.9
0.1,11.8002244465482,9.39944928326764,4.98873436965547,-0.00391402430979237,1,15.5,29.9
0.133333333333333,11.8004879509954,9.56567356139004,4.98472121570788,-0.00401315394759205,1,15.5,29.9
0.166666666666667,11.8008710609209,9.73176259087521,4.98063737687624,-0.00408383883163577,1,15.5,29.9
0.2,11.8013724749815,9.89771428449676,4.97650275120509,-0.00413462567115541,1,15.5,29.9
0.233333333333333,11.8019844740921,10.0635271410818,4.97233141520006,-0.0041713360050295,1,15.5,29.9
0.266666666666667,11.8026956841969,10.2292000898822,4.96813352083853,-0.00419789436153284,1,15.5,29.9
0.3,11.8034931816211,10.3947323788057,4.96391653215711,-0.00421698868142073,1,15.5,29.9
0.333333333333333,11.8043639686761,10.5601234916687,4.95968600695953,-0.00423052519757139,1,15.5,29.9
0.366666666666667,11.8052959497531,10.7253730853141,4.95544610092948,-0.00423990603005731,1,15.5,29.9
0.4,11.8062785624234,10.8904809411413,4.95119991410683,-0.00424618682264377,1,15.5,29.9
0.433333333333333,11.8073031876401,11.0554469277149,4.94694974612449,-0.00425016798234434,1,15.5,29.9
0.466666666666667,11.8083627961563,11.2202709743374,4.94269713009106,-0.00425261603342353,1,15.5,29.9
0.5,11.8094493986669,11.3849530606061,4.93844295005039,-0.00425418004067346,1,15.5,29.9
0.533333333333333,11.8105529756094,11.5494932097561,4.93418800756443,-0.00425494248596525,1,15.5,29.9
0.566666666666667,11.811664015128,11.7138914717509,4.92993300691871,-0.00425500064571604,1,15.5,29.9
0.6,11.8127737602929,11.8781479148507,4.92567869087216,-0.00425431604654936,1,15.5,29.9
0.633333333333333,11.8138779476712,12.0422626020546,4.92142565090564,-0.00425303996651749,1,15.5,29.9
0.666666666666667,11.8149751774791,12.2062355906241,4.91717421964365,-0.00425143126199057,1,15.5,29.9
0.7,11.8160676568377,12.3700669233439,4.91292460516954,-0.00424961447411132,1,15.5,29.9
0.733333333333333,11.8171602321242,12.5337566293635,4.90867684668823,-0.00424775848131187,1,15.5,29.9
0.766666666666667,11.8182583603381,12.6973047327199,4.9044308405669,-0.00424600612132675,1,15.5,29.9
0.8,11.8193650063501,12.8607112689189,4.90018643843096,-0.00424440213594668,1,15.5,29.9
0.833333333333333,11.8204795972232,13.0239762923818,4.89594348367444,-0.0042429547565126,1,15.5,29.9
0.866666666666667,11.8215960381269,13.187099889774,4.89170180504742,-0.0042416786270234,1,15.5,29.9
0.9,11.8227023105838,13.3500821850264,4.88746142496151,-0.0042403800859141,1,15.5,29.9
0.933333333333333,11.823785058116,13.5129233140473,4.88322259604528,-0.0042388289162254,1,15.5,29.9
0.966666666666667,11.8248334578601,13.675623400055,4.87898557481541,-0.00423702122987013,1,15.5,29.9
1,11.8258398800991,13.8381825540668,4.87475141843255,-0.00423415638286162,1,15.5,29.9
1.03333333333333,11.8267998888874,14.0006009719073,4.8705262593735,-0.00422515905904497,1,15.5,29.9
1.06666666666667,11.8277136322951,14.1628791241107,4.86632200333902,-0.00420425603448749,1,15.5,29.9
1.1,11.8285848737827,14.3250179417416,4.86215541463304,-0.00416658870597963,1,15.5,29.9
1.13333333333333,11.8294195104868,14.4870189650484,4.85804624267257,-0.00410917196047134,1,15.5,29.9
1.16666666666667,11.8302243854818,14.6488843848608,4.85401283121443,-0.00403341145813929,1,15.5,29.9
1.2,11.8310064187598,14.8106168940776,4.85006608441199,-0.00394674680243234,1,15.5,29.9
1.23333333333333,11.8317720196404,14.972219421637,4.84620937068801,-0.00385671372398377,1,15.5,29.9
1.26666666666667,11.8325267167774,15.1336949222184,4.84244079441299,-0.00376857627502503,1,15.5,29.9
1.3,11.8332749443236,15.2950466243711,4.83883269965032,-0.00360809476266866,1,15.5,29.9
1.33333333333333,11.8340201363961,15.4563159207182,4.83869834261162,-0.000134357038697352,1,15.5,29.9
1.36666666666667,11.8347655341302,15.6177412074846,4.84893195433694,0.0102336117253223,1,15.5,29.9
1.4,11.8355139577497,15.7797129163643,4.87152021884161,0.0225882645046731,4,15.5,29.9
1.43333333333333,11.8362671707594,15.9426343481533,4.90565925527422,0.0341390364326015,4,15.5,29.9
1.46666666666667,11.8370257672654,16.1068632329854,4.94968250904358,0.0440232537693683,4,15.5,29.9
1.5,11.8377887935542,16.2727000337253,5.00183737740887,0.0521548683652862,4,15.5,29.9
1.53333333333333,11.8385507965996,16.4403864087341,5.06037366229088,0.0585362848820088,4,15.4972222222222,29.9
1.56666666666667,11.839298201448,16.6101079710287,5.12369636609462,0.0633227038037454,4,15.4888888888889,29.9
1.6,11.8400106217142,16.7820009056524,5.19044036184148,0.0667439957468519,4,15.475,29.9
1.63333333333333,11.8406628212969,16.9561604586521,5.25952972311697,0.0690893612754913,4,15.4555555555556,29.9
1.66666666666667,11.8412322186214,17.1326515384413,5.33020943199721,0.0706797088802382,4,15.4305555555556,29.9
1.7,11.8417035141071,17.3115172447106,5.40189957166341,0.0716901396662006,4,15.4,29.9
1.73333333333333,11.8420703208923,17.4927827021707,5.47411420701419,0.0722146353507815,4,15.3666666666667,29.9
1.76666666666667,11.8423338262292,17.6764597176169,5.5465423832711,0.0724281762569099,4,15.3333333333333,29.9
1.8,11.842503105212,17.862552177264,5.6190270007697,0.0724846174986027,4,15.3,29.9
1.83333333333333,11.8425947609541,18.0510627015619,5.6916554825164,0.0726284817467002,4,15.2666666666667,29.9
1.86666666666667,11.8426291909995,18.2420000476836,5.76468462308707,0.073029140570668,4,15.2333333333333,29.9
1.9,11.8426246289235,18.4353830903271,5.83845880366804,0.07377418058097,4,15.2,29.9
1.93333333333333,11.8425932870097,18.6312431392013,5.91336978051199,0.0749109768439524,4,15.1666666666667,29.9
1.96666666666667,11.8425416577438,18.8296245093634,5.98979359386139,0.0764238133493995,4,15.1333333333333,29.9
2,11.8424718260957,19.0305825387459,6.06800211333023,0.0782085194688422,4,15.1,29.9
2.03333333333333,11.8423827050429,19.2341793781912,6.14814011311377,0.0801379997835339,4,15.0666666666667,29.9
2.06666666666667,11.8422710449754,19.4404810684593,6.23031199425805,0.0821718811442826,4,15.0333333333333,29.9
2.1,11.8421321930618,19.6495574339653,6.3146475420412,0.0843355477831533,4,15,29.9
2.13333333333333,11.8419606504096,19.8614833377707,6.40131430449424,0.0866667624530351,4,14.9666666666667,29.9
2.16666666666667,11.8417504989318,20.0763389758928,6.49044889562092,0.0891345911266868,4,14.9333333333333,29.9
2.2,11.8414957571318,20.2942073463917,6.58207153856011,0.0916226429391838,4,14.9,29.9
2.23333333333333,11.8411906940307,20.5151694887097,6.67604302973404,0.0939714911739351,4,14.8666666666667,29.9
2.26666666666667,11.8408293273342,20.7392995527149,6.77210313000093,0.0960601002668877,4,14.8333333333333,29.9
2.3,11.8404006419562,20.9666622742914,6.86995929402875,0.097856164027819,4,14.8,29.9
2.33333333333333,11.8398828190689,21.1973121279258,6.96928430016763,0.09932500613888,4,14.7666666666667,29.9
2.36666666666667,11.8392507267709,21.4312926887818,7.0697738954983,0.100489595330671,4,14.7333333333333,29.9
2.4,11.8384792698254,21.6686386300154,7.17119886386512,0.101424968366823,4,14.7,29.9
2.43333333333333,11.8375527108286,21.909378271277,7.2734120899838,0.102213226118678,4,14.6666666666667,29.9
2.46666666666667,11.8364638438449,22.1535367635259,7.37636800252314,0.102955912539337,4,14.6333333333333,29.9
2.5,11.8352113637598,22.4011390649103,7.48009489871346,0.103726896190324,4,14.6,29.9
2.53333333333333,11.8337999455544,22.6522119564431,7.58466516823215,0.104570269518691,4,14.5666666666667,29.9
2.56666666666667,11.8322378375632,22.90678491399,7.6901639126796,0.105498744447443,4,14.5333333333333,29.9
2.6,11.830534406441,23.1648905876743,7.79669906304542,0.106535150365823,4,14.5,29.9
2.63333333333333,11.8286998548479,23.4265658205699,7.90441039002638,0.10771132698096,4,14.4666666666667,29.9
2.66666666666667,11.8267456793976,23.6918521593009,8.01342864479327,0.109018254766888,4,14.4333333333333,29.9
2.7,11.8246774351732,23.9608598227513,8.12936574115604,0.115937096362773,4,14.4,29.9
2.73333333333333,11.8224943403807,24.2338781372532,8.25303072113187,0.123664979975826,4,14.3666666666667,29.9
2.76666666666667,11.8201929491602,24.5110688622069,8.37904347664939,0.126012755517523,4,14.3333333333333,29.9
2.8,11.8177688670008,24.7924492365822,8.50404134274249,0.124997866093095,4,14.3,29.9
2.83333333333333,11.8152174205984,25.0779502178018,8.62611711342706,0.122075770684569,4,14.2666666666667,29.9
2.86666666666667,11.8125339258145,25.3674566354205,8.74431526226253,0.118198148835472,4,14.2333333333333,29.9
2.9,11.8097157818282,25.660830499712,8.85820447865504,0.11388921639251,4,14.2,29.9
2.93333333333333,11.8067678326434,25.9579281227948,8.96784082744837,0.10963634879333,4,14.1666666666667,29.9
2.96666666666667,11.8036982077914,26.2586117604815,9.07347658361184,0.105635756163476,4,14.1333333333333,29.9
3,11.8005183005481,26.5627535106722,9.17544504826649,0.101968464654648,4,14.1,29.9
3.03333333333333,11.7972370832359,26.8702372891374,9.27411231041735,0.09866726215086,4,14.0666666666667,29.9
3.06666666666667,11.7938575255351,27.180959091919,9.36983622404495,0.095723913627598,4,14.0333333333333,29.9
3.1,11.7903786424354,27.4948262215197,9.46293401964287,0.0930977955979184,4,14,29.9
3.13333333333333,11.7867978517736,27.8117555694834,9.55366490128205,0.0907308816391801,4,13.9666666666667,29.9
3.16666666666667,11.7831123576366,28.1316716099268,9.64222022408985,0.0885553228078049,4,13.9333333333333,29.9
3.2,11.7793197595026,28.454503818684,9.72871003230768,0.0864898082178236,4,13.9,29.9
3.23333333333333,11.7754181630588,28.7801833016022,9.81309766050437,0.0843876281966942,4,13.8666666666667,29.9
3.26666666666667,11.7714060625017,29.1086377842091,9.89527455585413,0.082176895349761,4,13.8333333333333,29.9
3.3,11.7672820975884,29.4397932690687,9.97521028083182,0.0799357249776911,4,13.8,29.9
3.33333333333333,11.763044908893,29.7735723699736,10.0527355264252,0.0775252455933959,4,13.7666666666667,29.9
3.36666666666667,11.7586942711888,30.1098924118174,10.1277271722112,0.0749916457859889,4,13.7333333333333,29.9
3.4,11.7542346179232,30.4486676397846,10.2001156687868,0.0723884965755897,4,13.7,29.9
3.43333333333333,11.749673616697,30.7898122261613,10.2699843047815,0.069868635994716,4,13.6666666666667,29.9
3.46666666666667,11.7450205855549,31.133244645027,10.3374479529858,0.0674636482042512,4,13.6333333333333,29.9
3.5,11.7402878785329,31.4788834767106,10.4023790309089,0.0649310779231378,4,13.6,29.9
3.53333333333333,11.7354955098005,31.8266389599599,10.4644057377174,0.0620267068084921,4,13.5666666666667,29.9
3.56666666666667,11.7306623959738,32.1764062916951,10.5230353669945,0.0586296292770712,4,13.5333333333333,29.9
3.6,11.725808265222,32.528066327363,10.5779478616437,0.0549124946492494,4,13.5,29.9
3.63333333333333,11.7209497406608,32.881494393042,10.6291233151246,0.0511754534808677,4,13.4666666666667,29.9
3.66666666666667,11.7160999082668,33.2365669438645,10.6766108328562,0.0474875177316232,4,13.4333333333333,29.9
3.7,11.7112672459422,33.5931639263346,10.7206258825402,0.0440150496839831,4,13.4,29.9
3.73333333333333,11.7064613317626,33.9511762834742,10.7615766968221,0.0409508142819437,4,13.3666666666667,29.9
3.76666666666667,11.7016928261105,34.3105727746238,10.805326425209,0.0437497283868424,4,13.3333333333333,29.9
3.8,11.6969697130267,34.6715194659432,10.8537220649576,0.0483956397485983,4,13.3,29.9
3.83333333333333,11.692296587021,35.0341025301229,10.9030199198571,0.049297854899498,4,13.2666666666667,29.9
3.86666666666667,11.6876758872546,35.3983164065585,10.9513058599467,0.0482859400896327,4,13.2333333333333,29.9
3.9,11.6831089754547,35.764110579003,10.9977052955737,0.0463994356269719,4,13.2,29.9
3.93333333333333,11.6785967491092,36.1314163542852,11.0419344934374,0.0442291978637215,4,13.1666666666667,29.9
3.96666666666667,11.6741411553091,36.5001600760755,11.0839395599018,0.0420050664644229,4,13.1333333333333,29.9
4,11.6697476834364,36.8702697296616,11.1238837256472,0.0399441657453803,4,13.1,29.9
4.03333333333333,11.6654202136988,37.2416810859,11.1620311990177,0.0381474733705467,4,13.0666666666667,29.9
4.06666666666667,11.6611607021814,37.6143383857156,11.1986308436527,0.0365996446349683,4,13.0333333333333,29.9
4.1,11.6569701075744,37.9881942610408,11.2339351071562,0.0353042635035035,4,13,29.9
4.13333333333333,11.6528502732717,38.3632094539394,11.2681743068442,0.0342391996880274,4,12.9666666666667,29.9
4.16666666666667,11.6488067868777,38.7393518943217,11.3015462618851,0.0333719550408524,4,12.9333333333333,29.9
4.2,11.6448448713264,39.1165955251836,11.3342144811864,0.0326682193012573,4,12.9,29.9
