Time,x_ego,y_ego,velocity,acceleration,action,x_ped,y_ped
0,11.8,15.9,7,0,1,15.5,29.9
0.0333333333333333,11.8,16.1332703793943,6.99615577953002,-0.00384422046998356,1,15.5,29.9
0.0666666666666667,11.8,16.3664065988113,6.99196947109348,-0.00418630843653833,1,15.5,29.9
0.1,11.8,16.5994007552791,6.98769498718995,-0.00427448390352669,1,15.5,29.9
0.133333333333333,11.7999967123226,16.8322537852802,6.98349765988779,-0.00419732730216182,1,15.5,29.9
0.166666666666667,11.7999761383914,17.0649678800734,6.97935591369917,-0.00414174618861463,1,15.5,29.9
0.2,11.7999262944288,17.297544617218,6.97525431416013,-0.00410159953904898,1,15.5,29.9
0.233333333333333,11.7998370133281,17.5299851330819,6.97118180755974,-0.00407250660039082,1,15.5,29.9
0.266666666666667,11.7997000170211,17.7622902461887,6.9671304294687,-0.00405137809103095,1,15.5,29.9
0.3,11.7995114251696,17.994460546414,6.96309439815757,-0.00403603131112984,1,15.5,29.9
0.333333333333333,11.7992708581742,18.2264964600859,6.95906953873402,-0.00402485942355746,1,15.5,29.9
0.366666666666667,11.7989799550724,18.4583982973836,6.95505286149519,-0.00401667723882593,1,15.5,29.9
0.4,11.7986413347726,18.6901662865129,6.9510422430805,-0.00401061841469108,1,15.5,29.9
0.433333333333333,11.7982579567759,18.9218005980202,6.94703618276148,-0.00400606031902395,1,15.5,29.9
0.466666666666667,11.7978327775817,19.1533013618842,6.94303362020236,-0.00400256255911291,1,15.5,29.9
0.5,11.7973685867361,19.3846686794329,6.93903380373939,-0.00399981646297753,1,15.5,29.9
0.533333333333333,11.7968679265581,19.6159026316121,6.93503619803539,-0.00399760570399899,1,15.5,29.9
0.566666666666667,11.7963330349466,19.8470032846989,6.93104042050334,-0.00399577753204561,1,15.5,29.9
0.6,11.7957657867753,20.0779706942315,6.92704619760509,-0.00399422289825413,1,15.5,29.9
0.633333333333333,11.7951676364695,20.3088049077104,6.92305333435429,-0.00399286325079373,1,15.5,29.9
0.666666666666667,11.7945395782016,20.5395059664709,6.91906169246254,-0.00399164189175139,1,15.5,29.9
0.7,11.793882141279,20.7700739070254,6.91507117425543,-0.00399051820711627,1,15.5,29.9
0.733333333333333,11.7931954304944,21.0005087620817,6.91108171066606,-0.00398946358936492,1,15.5,29.9
0.766666666666667,11.7924792095166,21.2308105613794,6.90709325232276,-0.00398845834330341,1,15.5,29.9
0.8,11.7917330145731,21.4609793324191,6.90310576309926,-0.00398748922349412,1,15.5,29.9
0.833333333333333,11.7909562789744,21.6910151011183,6.89911921563793,-0.00398654746133165,1,15.5,29.9
0.866666666666667,11.7901484478205,21.9209178923899,6.89513358841573,-0.00398562722219697,1,15.5,29.9
0.9,11.7893090660536,22.1506877306249,6.89114886396882,-0.00398472444691222,1,15.5,29.9
0.933333333333333,11.7884378301907,22.3803246400563,6.88716502793836,-0.00398383603046426,1,15.5,29.9
0.966666666666667,11.7875346023336,22.6098286449929,6.88318206864226,-0.00398295929609471,1,15.5,29.9
1,11.7866001821848,22.8391997724884,6.87919991805624,-0.00398215058602247,1,15.5,29.9
1.03333333333333,11.7856380578122,23.0684380589035,6.87521855186374,-0.00398136619249634,1,15.5,29.9
1.06666666666667,11.7846511021073,23.2975435400841,6.87123801664556,-0.00398053521818387,1,15.5,29.9
1.1,11.7836409154357,23.5265162485175,6.86725834313816,-0.00397967350739581,1,15.5,29.9
1.13333333333333,11.7826081668727,23.7553562137603,6.86327954721743,-0.00397879592073469,1,15.5,29.9
1.16666666666667,11.7815537448242,23.984063466315,6.85930158044278,-0.00397796677464957,1,15.5,29.9
1.2,11.7804808966108,24.2126380462812,6.85532442921684,-0.00397715122594011,1,15.5,29.9
1.23333333333333,11.7793927819333,24.4410799945687,6.85134809083345,-0.00397633838339218,1,15.5,29.9
1.26666666666667,11.7782937276574,24.6693893579927,6.84737258198568,-0.00397550884776976,1,15.5,29.9
1.3,11.7771864408947,24.8975661776877,6.84339795225436,-0.00397462973131635,1,15.5,29.9
1.33333333333333,11.7760717843948,25.1256104872202,6.83942422101005,-0.00397373124431155,1,15.5,29.9
1.36666666666667,11.7749494412176,25.3535223147461,6.83545138909952,-0.00397283191053432,1,15.5,29.9
1.4,11.7738184499955,25.5813016850512,6.83147944888625,-0.00397194021326719,1,15.5,29.9
1.43333333333333,11.772677584452,25.8089486211695,6.82750839043147,-0.00397105845477697,1,15.5,29.9
1.46666666666667,11.7715255892057,26.0364631454915,6.82353820443173,-0.00397018599974164,1,15.5,29.9
1.5,11.7703613048163,26.2638452804189,6.81956888324035,-0.00396932119138071,1,15.5,29.9
1.53333333333333,11.7691845452087,26.4910950526414,6.81560039162118,-0.0039684916191689,1,15.4916666666667,29.9
1.56666666666667,11.7679979846277,26.7182125026051,6.81163271772702,-0.00396767389416031,1,15.4666666666667,29.9
1.6,11.7668037624076,26.9451976687519,6.80766588466602,-0.00396683306099543,1,15.425,29.9
1.63333333333333,11.7656036170482,27.172050587992,6.80369988340869,-0.00396600125733038,1,15.3752276867031,29.9
1.66666666666667,11.764401911704,27.3987713106733,6.79973469729803,-0.00396518611066465,1,15.3259107468124,29.9
1.7,11.7632055490119,27.625359900615,6.79577033975918,-0.00396435753884639,1,15.2770491803279,29.9
1.73333333333333,11.7620219348995,27.851816424851,6.79180685628763,-0.0039634834715585,1,15.2286429872495,29.9
1.76666666666667,11.7608570499463,28.0781409432231,6.78784427120231,-0.00396258508531133,1,15.1806921675774,29.9
1.8,11.7597200430182,28.3043335309386,6.78388262607753,-0.0039616451247797,1,15.1331967213115,29.9
1.83333333333333,11.7586202645942,28.5303942625981,6.77992197147935,-0.00396065459818473,1,15.0861566484517,29.9
1.86666666666667,11.7575662847485,28.7563232060523,6.77596234221225,-0.00395962926710069,1,15.0395719489982,29.9
1.9,11.7565650641084,28.9821204173689,6.77200371628095,-0.0039586259312987,1,14.9934426229508,29.9
1.93333333333333,11.7556193155275,29.2077859279128,6.76804599890486,-0.00395771737609252,1,14.9477686703097,29.9
1.96666666666667,11.7547282917674,29.4333197499846,6.76408908982479,-0.00395690908006419,1,14.9025500910747,29.9
2,11.7538892362809,29.658721886016,6.76013291986014,-0.00395616996465176,1,14.8577868852459,29.9
2.03333333333333,11.7530992278367,29.8839923387556,6.75617752264819,-0.00395539721195526,1,14.8134790528233,29.9
2.06666666666667,11.7523576565501,30.1091311224084,6.75222293163074,-0.00395459101744144,1,14.7696265938069,29.9
2.1,11.7516642660733,30.3341382531101,6.74826919028472,-0.003953741346022,1,14.7262295081967,29.9
2.13333333333333,11.7510214001649,30.5590137573459,6.7443163903584,-0.00395279992631892,1,14.6832877959927,29.9
2.16666666666667,11.7504336895727,30.7837576684937,6.74036459269533,-0.00395179766307496,1,14.6408014571949,29.9
2.2,11.7499064452229,31.0083700188652,6.73641374894138,-0.00395084375394816,1,14.5987704918033,29.9
2.23333333333333,11.7494423325029,31.2328508302588,6.73246410924048,-0.00394963970090068,1,14.5571948998179,29.9
2.26666666666667,11.7490415938449,31.4572001687745,6.7285189570178,-0.0039451522226841,1,14.5160746812386,29.9
2.3,11.748703095906,31.6814182695487,6.72458499156446,-0.00393396545333502,1,14.4754098360656,29.9
2.33333333333333,11.748425110515,31.9055056210952,6.72067043781162,-0.00391455375284,1,14.4352003642987,29.9
2.36666666666667,11.7482058051475,32.1294629944679,6.71678377409126,-0.00388666372035829,1,14.3954462659381,29.9
2.4,11.748043485813,32.3532914341661,6.71293266136556,-0.00385111272570438,1,14.3561475409836,29.9
2.43333333333333,11.7479366691486,32.5769922148303,6.70912299104666,-0.00380967031889679,1,14.3173041894353,29.9
2.46666666666667,11.7478840651399,32.8005667599364,6.70535753964952,-0.00376545139713702,1,14.2789162112933,29.9
2.5,11.747884534439,33.024017614708,6.7018539115373,-0.00350362811222915,1,14.2409836065574,29.9
2.53333333333333,11.747937002175,33.2473937893731,6.70157817639553,-0.000275735141767264,1,14.2035063752277,29.9
2.56666666666667,11.7480404192069,33.4708560270756,6.70722121279323,0.00564303639770358,1,14.1664845173042,29.9
2.6,11.7481939508965,33.6946131003909,6.71926895330204,0.0120477405088089,1,14.1299180327869,29.9
2.63333333333333,11.7483971077914,33.9188762403063,6.73752183821295,0.0182528849109129,4,14.0938069216758,29.9
2.66666666666667,11.7486498003499,34.143845008239,6.76152842090883,0.0240065826958773,4,14.0581511839709,29.9
2.7,11.7489523454187,34.3697018073914,6.79069745305004,0.0291690321412093,4,14.0229508196721,29.9
2.73333333333333,11.7493054302114,34.5966079815382,6.82439514163495,0.0336976885849145,4,13.9882058287796,29.9
2.76666666666667,11.7497100410043,34.8247048368369,6.86205440909802,0.03765926746307,4,13.9539162112933,29.9
2.8,11.7501673735562,35.054115796818,6.90316706270062,0.0411126536025952,4,13.9200819672131,29.9
2.83333333333333,11.7506779067812,35.2849481517628,6.94727031995624,0.044103257255621,4,13.9200819672131,29.9
2.86666666666667,11.7512394245227,35.5172942845665,6.99393240385072,0.0466620838944749,4,13.9200819672131,29.9
2.9,11.7518503927284,35.7512328863495,7.04276523025111,0.0488328264003952,4,13.9200819672131,29.9
2.93333333333333,11.7525105777016,35.9868304819777,7.0934259557289,0.0506607254777851,4,13.9200819672131,29.9
2.96666666666667,11.7532206376006,36.2241427081623,7.14560124086332,0.0521752851344237,4,13.9200819672131,29.9
3,11.7539817646633,36.4632151589568,7.19900307206837,0.0534018312050462,4,13.9200819672131,29.9
3.03333333333333,11.7547954199746,36.7040843672735,7.2533772959607,0.0543742238923297,4,13.9200819672131,29.9
3.06666666666667,11.755663166717,36.94677904953,7.30850962255733,0.0551323265966355,4,13.9200819672131,29.9
3.1,11.7565857483928,37.1913214530738,7.36422549207528,0.0557158695179485,4,13.9200819672131,29.9
3.13333333333333,11.7575602932368,37.4377285883337,7.42038277176098,0.0561572796856966,4,13.9200819672131,29.9
3.16666666666667,11.7585791428737,37.6860131538226,7.47686234507715,0.0564795733161789,4,13.9200819672131,29.9
3.2,11.75962562918,37.9361842166914,7.53356237587382,0.0567000307966659,4,13.9200819672131,29.9
3.23333333333333,11.7606766301122,38.1882477201345,7.59039499355642,0.0568326176826002,4,13.9200819672131,29.9
3.26666666666667,11.7617074157336,38.4422068845247,7.64728410248562,0.0568891089291981,4,13.9200819672131,29.9
3.3,11.7627006084639,38.6980625286957,7.70416360263369,0.0568795001480744,4,13.9200819672131,29.9
3.33333333333333,11.7636487726996,38.9558133704895,7.76097608547127,0.0568124828375787,4,13.9200819672131,29.9
3.36666666666667,11.7645512275189,39.2154563218178,7.817672142582,0.0566960571107247,4,13.9200819672131,29.9
