Time,x_ego,y_ego,velocity,acceleration,action,x_ped,y_ped
0,11.8,8.9,7,0,1,15.5,29.9
0.0333333333333333,11.7999934139584,9.13327037937827,6.99615580096265,-0.00384419903734567,1,15.5,29.9
0.0666666666666667,11.7999522050601,9.36640659818259,6.99196970777132,-0.00418609319133179,1,15.5,29.9
0.1,11.799854069614,9.59940074962037,6.98769579546929,-0.00427391230203256,1,15.5,29.9
0.133333333333333,11.7996874418788,9.83225376013331,6.98349934844853,-0.00419644702076116,1,15.5,29.9
0.166666666666667,11.799448288374,10.0649678045994,6.97935856716226,-0.00414078128626993,1,15.5,29.9
0.2,11.7991372353848,10.2975444409475,6.97525776920269,-0.00410079795956975,1,15.5,29.9
0.233333333333333,11.7987573684881,10.529984787151,6.97118573153733,-0.00407203766536046,1,15.5,29.9
0.266666666666667,11.7983127767525,10.7622896484326,6.96713445864938,-0.00405127288795359,1,15.5,29.9
0.3,11.7978093758153,10.9944596097022,6.96309809735214,-0.00403636129723672,1,15.5,29.9
0.333333333333333,11.797258244218,11.2264951060998,6.95907254713914,-0.00402555021299644,1,15.5,29.9
0.366666666666667,11.7966687393164,11.4583964638548,6.95505507608913,-0.00401747105001071,1,15.5,29.9
0.4,11.7960472133202,11.6901639284857,6.95104372302354,-0.00401135306558853,1,15.5,29.9
0.433333333333333,11.7953977688724,11.9217976858906,6.94703705861267,-0.00400666441086894,1,15.5,29.9
0.466666666666667,11.7947228969115,12.1532978778168,6.94303403492298,-0.00400302368969463,1,15.5,29.9
0.5,11.7940239256109,12.384664613299,6.93903388476242,-0.00400015016056265,1,15.5,29.9
0.533333333333333,11.7933012979506,12.6158979770878,6.93503604969969,-0.00399783506272922,1,15.5,29.9
0.566666666666667,11.7925547405403,12.8469980358408,6.93104012617767,-0.00399592352201594,1,15.5,29.9
0.6,11.791783393255,13.077964842703,6.92704582433368,-0.00399430184398764,1,15.5,29.9
0.633333333333333,11.7909859505326,13.3087984407807,6.9230529364854,-0.00399288784828489,1,15.5,29.9
0.666666666666667,11.790160835293,13.539498865869,6.91906131331516,-0.00399162317024349,1,15.5,29.9
0.7,11.7893063979723,13.7700661486687,6.91507084628274,-0.00399046703241979,1,15.5,29.9
0.733333333333333,11.7884211143919,14.0005003166108,6.91108145503413,-0.0039893912486102,1,15.5,29.9
0.766666666666667,11.7875037503237,14.2308013953304,6.90709307873454,-0.00398837629958315,1,15.5,29.9
0.8,11.7865534664669,14.4609694097847,6.90310567040892,-0.00398740832562616,1,15.5,29.9
0.833333333333333,11.7855698510018,14.6910043850011,6.89911919350205,-0.00398647690687071,1,15.5,29.9
0.866666666666667,11.7845528827245,14.9209063464684,6.89513361994546,-0.00398557355658102,1,15.5,29.9
0.9,11.7835028412861,15.1506753202154,6.89114892906766,-0.0039846908777994,1,15.5,29.9
0.933333333333333,11.7824201891421,15.3803113326617,6.88716510677775,-0.00398382228991867,1,15.5,29.9
0.966666666666667,11.7813054513602,15.609814410343,6.88318214463288,-0.00398296214486393,1,15.5,29.9
1,11.7801591151552,15.8391845796128,6.87920003863946,-0.00398210599342086,1,15.5,29.9
1.03333333333333,11.7789815629329,16.0684218664028,6.87521878785812,-0.00398125078133926,1,15.5,29.9
1.06666666666667,11.7777730432165,16.2975262960905,6.87123839301125,-0.00398039484687107,1,15.5,29.9
1.1,11.7765336754315,16.5264978934873,6.86725885530493,-0.00397953770632142,1,15.5,29.9
1.13333333333333,11.7752634787439,16.7553366829298,6.86328017560631,-0.00397867969861476,1,15.5,29.9
1.16666666666667,11.7739624126825,16.9840426884365,6.85930235401594,-0.00397782159037785,1,15.5,29.9
1.2,11.772630417937,17.2126159338845,6.85532538978792,-0.00397696422801896,1,15.5,29.9
1.23333333333333,11.7712674486693,17.4410564431641,6.85134928149951,-0.00397610828840378,1,15.5,29.9
1.26666666666667,11.7698734917441,17.6693642402852,6.84737402735444,-0.00397525414507349,1,15.5,29.9
1.3,11.7684485723343,17.8975393494219,6.84339962551267,-0.00397440184177178,1,15.5,29.9
1.33333333333333,11.7669927485078,18.1255817949019,6.83942607436344,-0.00397355114922959,1,15.5,29.9
1.36666666666667,11.7655060991764,18.3534916011563,6.83545337269143,-0.00397270167200503,1,15.5,29.9
1.4,11.7639887101325,18.5812687926527,6.83148151972149,-0.00397185296994529,1,15.5,29.9
1.43333333333333,11.7624406620879,18.8089133938315,6.82751051505863,-0.0039710046628576,1,15.5,29.9
1.46666666666667,11.7608620231285,19.0364254290626,6.82354035856092,-0.00397015649770882,1,15.5,29.9
1.5,11.759252846324,19.2638049226271,6.81957105019001,-0.00396930837090981,1,15.5,29.9
1.53333333333333,11.7576131718052,19.4910518987265,6.81560258987898,-0.00396846031102882,1,15.5,29.9
1.56666666666667,11.7559430317131,19.7181663815092,6.81163497744351,-0.00396761243547683,1,15.5,29.9
1.6,11.7542424561193,19.9451483951058,6.80766821254585,-0.00396676489765557,1,15.5,29.9
1.63333333333333,11.752511478233,20.1719979636629,6.80370229470668,-0.00396591783916733,1,15.5,29.9
1.66666666666667,11.7507501377785,20.3987151113669,6.79973722334986,-0.00396507135682711,1,15.5,29.9
1.7,11.7489584821234,20.6252998624535,6.79577299786135,-0.00396422548850239,1,15.5,29.9
1.73333333333333,11.7471365653739,20.8517522412047,6.79180961764483,-0.00396338021652554,1,15.5,29.9
1.76666666666667,11.745284446087,21.0780722719348,6.78784708216114,-0.00396253548368897,1,15.5,29.9
1.8,11.7434021844334,21.3042599789711,6.78388539094596,-0.00396169121517609,1,15.5,29.9
1.83333333333333,11.741489839589,21.5303153866355,6.77992454360611,-0.00396084733985003,1,15.5,29.9
1.86666666666667,11.7395474679064,21.7562385192302,6.77596453980008,-0.0039600038060339,1,15.5,29.9
1.9,11.7375751221145,21.9820294010305,6.77200537921087,-0.00395916058921131,1,15.5,29.9
1.93333333333333,11.7355728515028,22.207688056285,6.76804706151915,-0.00395831769171817,1,15.5,29.9
1.96666666666667,11.7335407028275,22.4332145092216,6.76408958638289,-0.0039574751362581,1,15.5,29.9
2,11.7314787215716,22.6586087840563,6.76013295342677,-0.00395663295612181,1,15.5,29.9
2.03333333333333,11.7293869531933,22.8838709050035,6.75617716224158,-0.00395579118518885,1,15.5,29.9
2.06666666666667,11.7272654440809,23.1090008962836,6.75222221239159,-0.00395494984999178,1,15.5,29.9
2.1,11.7251142420663,23.3339987821279,6.74826810342632,-0.00395410896527082,1,15.5,29.9
2.13333333333333,11.7229333964811,23.5588645867796,6.7443148348931,-0.00395326853322242,1,15.5,29.9
2.16666666666667,11.7207229578508,23.7835983344915,6.74036240634732,-0.0039524285457766,1,15.5,29.9
2.2,11.7184829773812,24.0082000495223,6.73641081735861,-0.00395158898871451,1,15.5,29.9
2.23333333333333,11.7162135064022,24.2326697561313,6.73246006751234,-0.00395074984626476,1,15.5,29.9
2.26666666666667,11.7139145959098,24.4570074785746,6.72851015640735,-0.00394991110499099,1,15.5,29.9
2.3,11.7115862962855,24.6812132411026,6.72456108365107,-0.00394907275627698,1,15.5,29.9
2.33333333333333,11.7092286572186,24.9052870679584,6.72061284885394,-0.00394823479713402,1,15.5,29.9
2.36666666666667,11.7068417278007,25.1292289833791,6.71666545162443,-0.00394739722951165,1,15.5,29.9
2.4,11.7044255567303,25.353039011597,6.71271889156576,-0.00394656005866523,1,15.5,29.9
2.43333333333333,11.7019801925544,25.5767171768425,6.70877316827465,-0.00394572329111398,1,15.5,29.9
2.46666666666667,11.6995056838817,25.8002635033454,6.70482828134185,-0.00394488693279982,1,15.5,29.9
2.5,11.6970012679302,26.0236780069351,6.70088429279723,-0.00394398854462086,1,15.5,29.9
2.53333333333333,11.6944635204029,26.2469606751055,6.6969412264536,-0.0039430663436244,1,15.5,29.9
2.56666666666667,11.6918889236324,26.4701114924821,6.69299909739791,-0.00394212905569713,1,15.5,29.9
2.6,11.6892719475104,26.6931304199822,6.68905797063033,-0.00394112676758063,1,15.5,29.9
2.63333333333333,11.6866059964391,26.9160174035193,6.68511781519564,-0.00394015543468829,1,15.5,29.9
2.66666666666667,11.683887010971,27.1387724128238,6.68117853068507,-0.00393928451056791,1,15.5,29.9
2.7,11.6811134888248,27.3613954453539,6.67724029926682,-0.00393823141824967,1,15.5,29.9
2.73333333333333,11.6782855976504,27.5838865546623,6.67330546389505,-0.00393483537176831,1,15.5,29.9
2.76666666666667,11.6754044587156,27.8062459337867,6.66937917130806,-0.00392629258699095,1,15.5,29.9
2.8,11.6724716400316,28.0284739855706,6.66546824881958,-0.0039109224884788,1,15.5,29.9
2.83333333333333,11.6694888410179,28.2505713527141,6.66157986699406,-0.00388838182551954,1,15.5,29.9
2.86666666666667,11.6664577208234,28.472538908255,6.65772052019516,-0.00385934679889743,1,15.5,29.9
2.9,11.6633798153579,28.6943777222841,6.65389550704966,-0.00382501314550687,1,15.5,29.9
2.93333333333333,11.6602564970501,28.9160890156245,6.65010861154765,-0.00378689550201017,1,15.5,29.9
2.96666666666667,11.6570889480426,29.1376741061287,6.64636196427971,-0.00374664726794194,1,15.5,29.9
3,11.6538781192114,29.3591355408233,6.64288065768845,-0.00348130659125978,1,15.5,29.9
3.03333333333333,11.6506241208645,29.5805211868577,6.64252391552602,-0.000356742162430201,1,15.5,29.9
3.06666666666667,11.647325347244,29.8019862827255,6.64788727563884,0.00536336011282224,1,15.5,29.9
3.1,11.6439792207306,30.0237329641984,6.65945722645019,0.011569950811352,1,15.5,29.9
3.13333333333333,11.6405835863131,30.2459658827566,6.67704021391178,0.0175829874615898,1,15.5,29.9
3.16666666666667,11.6371395493569,30.4688783561008,6.70019373475177,0.0231535208399949,4,15.5,29.9
3.2,11.6336508627529,30.6926473070966,6.72835510013823,0.0281613653864587,4,15.5,29.9
3.23333333333333,11.6301237023954,30.9174290261072,6.76088633568396,0.0325312355457248,4,15.5,29.9
3.26666666666667,11.6265675696555,31.1433594357657,6.79720257604723,0.0363162403632735,4,15.5,29.9
3.3,11.6229906311419,31.3705558306288,6.83677122576555,0.0395686497183148,4,15.5,29.9
3.33333333333333,11.6193970898249,31.5991184930531,6.8791075818351,0.0423363560695549,4,15.5,29.9
3.36666666666667,11.6157900014267,31.8291323069672,6.92377356574323,0.044665983908124,4,15.5,29.9
3.4,11.6121694845688,32.0606682626055,6.97037536262831,0.0466017968850831,4,15.5,29.9
3.43333333333333,11.6085332789902,32.2937847868531,7.01855465221427,0.0481792895859634,4,15.5,29.9
3.46666666666667,11.6048779221656,32.5285290202213,7.06799532510259,0.0494406728883225,4,15.5,29.9
3.5,11.6011995393728,32.7649383111322,7.11842594822484,0.0504306231222493,4,15.5,29.9
3.53333333333333,11.59749431327,33.003041659903,7.16961616415831,0.0511902159334641,4,15.5,29.9
3.56666666666667,11.5937587304685,33.2428609484588,7.22136617381079,0.051750009652479,4,15.5,29.9
3.6,11.5899897014996,33.4844116696053,7.27349074771311,0.0521245739023195,4,15.5,29.9
3.63333333333333,11.5861846185235,33.7277034148473,7.32582221651457,0.0523314688014604,4,15.5,29.9
3.66666666666667,11.5823413819473,33.9727405839804,7.37821696731636,0.0523947508017883,4,15.5,29.9
3.7,11.5784584100221,34.2195232206578,7.4305567851001,0.0523398177837402,4,15.5,29.9
3.73333333333333,11.5745346304066,34.4680478383115,7.48274725619791,0.052190471097818,4,15.5,29.9
3.76666666666667,11.5705694475707,34.7183081118771,7.53470947740052,0.0519622212026087,4,15.5,29.9
3.8,11.5665626844395,34.9702952300035,7.5863745937933,0.0516651163927753,4,15.5,29.9
3.83333333333333,11.5625144941488,35.2239983356357,7.63768235720661,0.0513077634133117,4,15.5,29.9
3.86666666666667,11.5584252698795,35.4794039031121,7.6885313042981,0.0508489470914926,4,15.5,29.9
3.9,11.5542955495093,35.7364951896246,7.73884254153148,0.050311237233382,4,15.5,29.9
3.93333333333333,11.5501258977135,35.9952538118429,7.78860215063431,0.0497596091028214,4,15.5,29.9
3.96666666666667,11.5459167999368,36.2556619883824,7.83784642085018,0.0492442702158726,4,15.5,29.9
4,11.541668613799,36.5177029688396,7.88659646181931,0.0487500409691357,4,15.5,29.9
4.03333333333333,11.5373806295893,36.7813600381275,7.93483182045114,0.048235358631822,4,15.5,29.9
4.06666666666667,11.5330481243713,37.0466154950764,7.98252829526313,0.0476964748119952,4,15.5,29.9
4.1,11.528661513871,37.3134510919614,8.02968074137753,0.0471524461144002,4,15.5,29.9
4.13333333333333,11.5241999323962,37.5818483996524,8.07629385601536,0.0466131146378288,4,15.5,29.9
4.16666666666667,11.5196300013775,37.8517890488221,8.12237965310359,0.0460857970882262,4,15.5,29.9
4.2,11.5149189165514,38.1232551005857,8.16795068269726,0.0455710295936722,4,15.5,29.9
4.23333333333333,11.5100448954993,38.3962290122081,8.21301081284974,0.0450601301524785,4,15.5,29.9
4.26666666666667,11.5049992532119,38.6706938046484,8.25758003536094,0.0445692225112015,4,15.5,29.9
4.3,11.4997839923033,38.9466335593247,8.30168817407288,0.0441081387119464,4,15.5,29.9
4.33333333333333,11.4944068337353,39.2240336663878,8.34538109016516,0.0436929160922723,4,15.5,29.9
