Time,x_ego,y_ego,velocity,acceleration,action,x_ped,y_ped
0,11.8,8.9,7,0,1,15.5,29.9
0.0333333333333333,11.7999991556326,9.13327037939405,6.9961557798823,-0.00384422011770269,1,15.4972222222222,29.9
0.0666666666666667,11.7999938724217,9.36640659880093,6.99196947498367,-0.00418630489862348,1,15.4888888888889,29.9
0.1,11.799981290911,9.5994007551861,6.98769500047537,-0.00427447450830609,1,15.475,29.9
0.133333333333333,11.799959928311,9.83225378487076,6.98349768237817,-0.0041973180971997,1,15.4555555555556,29.9
0.166666666666667,11.7999292675115,10.064967878987,6.9793558991536,-0.00414178322456493,1,15.4305555555556,29.9
0.2,11.7998893888109,10.2975446157421,6.97525415530547,-0.00410174384813455,1,15.4,29.9
0.233333333333333,11.7998406878021,10.5299851341457,6.97118134647772,-0.00407280882774508,1,15.3666666666667,29.9
0.266666666666667,11.7997836887301,10.76229025851,6.96712951555286,-0.00405183092486805,1,15.3333333333333,29.9
0.3,11.7997189398368,10.9944605876619,6.9630929607827,-0.00403655477015707,1,15.3,29.9
0.333333333333333,11.7996469661865,11.2264965588621,6.95906759649829,-0.00402536428440392,1,15.2666666666667,29.9
0.366666666666667,11.7995682542707,11.4583984935997,6.95505049501719,-0.00401710148110634,1,15.2333333333333,29.9
0.4,11.7994824505771,11.6901666302303,6.95103956966535,-0.00401092535183345,1,15.2,29.9
0.433333333333333,11.7993865542869,11.9218011469443,6.94703332316027,-0.00400624650508785,1,15.1666666666667,29.9
0.466666666666667,11.799277358722,12.1533021788926,6.94303068723819,-0.00400263592207839,1,15.1333333333333,29.9
0.5,11.7991477228844,12.3846698289807,6.93903095616226,-0.00399973107592988,1,15.1,29.9
0.533333333333333,11.7989816674532,12.6159041736704,6.93503372883995,-0.00399722732230678,1,15.0666666666667,29.9
0.566666666666667,11.7987566748011,12.8470052664551,6.93103885816961,-0.00399487067033899,1,15.0333333333333,29.9
0.6,11.7984487506368,13.0779731388295,6.92704625725225,-0.00399260091735787,1,15,29.9
0.633333333333333,11.7980407432829,13.308807802625,6.92305561350115,-0.00399064375110481,1,14.9666666666667,29.9
0.666666666666667,11.7975250555707,13.539509254728,6.91906642611458,-0.00398918738657272,1,14.9333333333333,29.9
0.7,11.7969010262316,13.7700774833636,6.91507822163717,-0.00398820447740444,1,14.9,29.9
0.733333333333333,11.7961720067257,14.0005124749037,6.91109067724846,-0.00398754438871318,1,14.8666666666667,29.9
0.766666666666667,11.7953432920865,14.2308142193662,6.9071036440424,-0.00398703320606231,1,14.8333333333333,29.9
0.8,11.794420834592,14.4609827135806,6.90311710359718,-0.00398654044521596,1,14.8,29.9
0.833333333333333,11.7934105464682,14.6910179621278,6.89913110655412,-0.00398599704306424,1,14.7666666666667,29.9
0.866666666666667,11.7923179681043,14.9209199767041,6.89514572414957,-0.0039853824045446,1,14.7333333333333,29.9
0.9,11.791148112773,15.15068877458,6.89116102196478,-0.00398470218479474,1,14.7,29.9
0.933333333333333,11.7899053651388,15.3803243766349,6.88717705194694,-0.00398397001783746,1,14.6666666666667,29.9
0.966666666666667,11.7885933805311,15.6098268052736,6.88319385450687,-0.00398319744007214,1,14.6333333333333,29.9
1,11.7872158170182,15.839196085862,6.8792113228626,-0.0039825316442661,1,14.6,29.9
1.03333333333333,11.7857782737625,16.0684031892141,6.87348555154627,-0.00572577131633167,1,14.5666666666667,29.9
1.06666666666667,11.7842851450936,16.2973326192021,6.86257272463049,-0.0109128269157841,1,14.5333333333333,29.9
1.1,11.7827404889066,16.5256672541644,6.83781945303133,-0.0247532715991579,3,14.5,29.9
1.13333333333333,11.7811505761197,16.7528880273253,6.7957617382075,-0.0420577148238284,3,14.4666666666667,29.9
1.16666666666667,11.7795203937367,16.9784759477042,6.73986840128627,-0.0558933369212271,3,14.4333333333333,29.9
1.2,11.7778523192517,17.2021431703554,6.68054000982513,-0.0593283914611389,3,14.4,29.9
1.23333333333333,11.7761473728878,17.4238613131438,6.62294401981171,-0.0575959900134233,3,14.3666666666667,29.9
1.26666666666667,11.7744088180759,17.6436307347372,6.56363658952712,-0.0593074302845933,3,14.3333333333333,29.9
1.3,11.7726402534647,17.8613075752641,6.49740848351121,-0.0662281060159096,3,14.3,29.9
1.33333333333333,11.7708446912383,18.0766902354895,6.42600478782057,-0.0714036956906394,3,14.2666666666667,29.9
1.36666666666667,11.7690252359343,18.2894910432001,6.34251624451526,-0.0834885433053119,3,14.2333333333333,29.9
1.4,11.7671850328505,18.4993933107535,6.25211095932323,-0.090405285192027,3,14.2,29.9
1.43333333333333,11.7653269818909,18.7062242772017,6.15825609615946,-0.0938548631637675,3,14.1666666666667,29.9
1.46666666666667,11.7634560434278,18.9098693652793,6.06097420763676,-0.0972818885227058,3,14.1333333333333,29.9
1.5,11.761576505964,19.1102427252289,5.961966379743,-0.0990078278937521,3,14.1,29.9
1.53333333333333,11.7596918824648,19.3073159297342,5.86297691747509,-0.0989894622679151,3,14.0666666666667,29.9
1.56666666666667,11.7578082360061,19.5010322446945,5.76056168587742,-0.102415231597667,3,14.0333333333333,29.9
1.6,11.7559330909786,19.6913058980518,5.6564215825907,-0.104140103286722,3,14,29.9
1.63333333333333,11.754072051187,19.8780511172822,5.54885676945949,-0.10756481313121,3,13.9666666666667,29.9
1.66666666666667,11.7522289002743,20.0611534254799,5.43784604000138,-0.111010729458114,3,13.9333333333333,29.9
1.7,11.7504060157453,20.2404979851638,5.32338994885619,-0.114456091145187,3,13.9,29.9
1.73333333333333,11.7486049130674,20.4159699654003,5.20548900558966,-0.117900943266531,3,13.8666666666667,29.9
1.76666666666667,11.7468271798301,20.5873971421713,5.08069942726772,-0.124789578321939,3,13.8333333333333,29.9
1.8,11.7450745165213,20.7545786095269,4.9507441079914,-0.129955319276317,3,13.8,29.9
1.83333333333333,11.7433481373181,20.9173708867553,4.81734578006613,-0.133398327925276,3,13.7666666666667,29.9
1.86666666666667,11.7416491328593,21.0756592129445,4.68050485087868,-0.136840929187442,3,13.7333333333333,29.9
1.9,11.7399785277155,21.2293579080395,4.54196561056883,-0.138539240309853,3,13.7,29.9
1.93333333333333,11.7383370596052,21.3784380777908,4.4033637582232,-0.138601852345631,3,13.6666666666667,29.9
1.96666666666667,11.7367260777545,21.5228384768138,4.26118531823525,-0.142178439987953,3,13.6333333333333,29.9
2,11.7351472596702,21.6624984726233,4.11894221847428,-0.142243099760968,3,13.6,29.9
2.03333333333333,11.7336026310316,21.7973590960811,3.97322287443045,-0.145719344043825,3,13.5666666666667,29.9
2.06666666666667,11.7320956369447,21.9273045552171,3.82402922413474,-0.149193650295713,3,13.5333333333333,29.9
2.1,11.730631448388,22.0522484595502,3.67312245296072,-0.150906771174026,3,13.5,29.9
2.13333333333333,11.7292149050968,22.1721336105287,3.5204931961386,-0.152629256822113,3,13.4666666666667,29.9
2.16666666666667,11.727850153637,22.2869031559963,3.36617223503803,-0.154320961100573,3,13.4333333333333,29.9
2.2,11.7265403049198,22.3965295558496,3.21188819304094,-0.154284041997088,3,13.4,29.9
2.23333333333333,11.7252874376763,22.5010141438235,3.05764555183185,-0.154242641209095,3,13.3666666666667,29.9
2.26666666666667,11.7240929363351,22.6003583712889,2.90344740962717,-0.154198142204676,3,13.3333333333333,29.9
2.3,11.7229575633531,22.6945637689118,2.74929587536864,-0.154151534258529,3,13.3,29.9
2.33333333333333,11.7218818903866,22.7836319233284,2.59519231950679,-0.154103555861853,3,13.2666666666667,29.9
2.36666666666667,11.7208675770975,22.8675644711751,2.44113759838929,-0.1540547211175,3,13.2333333333333,29.9
2.4,11.7199170207648,22.9463630812573,2.28713227737322,-0.154005321016073,3,13.2,29.9
2.43333333333333,11.7190320009726,23.0200302750014,2.13330653203977,-0.153825745333447,3,13.1666666666667,29.9
2.46666666666667,11.7182141886141,23.0885608485872,1.97919374676843,-0.154112785271338,3,13.1333333333333,29.9
2.5,11.7174638411585,23.151995723969,1.82762140923556,-0.151572337532875,3,13.1,29.9
2.53333333333333,11.7167800921827,23.2103961955073,1.67712173184998,-0.150499677385578,3,13.0666666666667,29.9
2.56666666666667,11.7161620479796,23.2637701978104,1.52601343466444,-0.15110829718554,3,13.0333333333333,29.9
2.6,11.7156087455337,23.3120983902349,1.37435056601218,-0.151662868652254,3,13,29.9
2.63333333333333,11.7151187201873,23.3553908851808,1.22385032486113,-0.150500241151054,3,12.9666666666667,29.9
2.66666666666667,11.7146904781082,23.3936580097069,1.07280716556925,-0.151043159291879,3,12.9333333333333,29.9
2.7,11.7143229089321,23.4268825042058,0.921306671149483,-0.151500494419768,3,12.9,29.9
2.73333333333333,11.7140146618414,23.4550816652673,0.771281369732435,-0.150025301417047,3,12.8666666666667,29.9
2.76666666666667,11.7137642186486,23.478304114005,0.622667890869076,-0.148613478863359,3,12.8333333333333,29.9
2.8,11.7135702758403,23.49659666923,0.475486334372532,-0.147181556496544,3,12.8,29.9
2.83333333333333,11.7134316915714,23.5100088573333,0.329836512276094,-0.145649822096438,3,12.7666666666667,29.9
2.86666666666667,11.7133474891538,23.518591324772,0.18567626826434,-0.144160244011754,3,12.7333333333333,29.9
2.9,11.7133168496681,23.522394578241,0.0431266551165797,-0.14254961314776,3,12.7,29.9
2.93333333333333,11.7133338595665,23.5219399891584,0.0324838680221464,-0.0106427870944333,5,12.6666666666667,29.9
2.96666666666667,11.7133581835862,23.520857976788,0.00139253778994202,-0.0310913302322044,3,12.6333333333333,29.9
3,11.7133581835862,23.520857976788,0.00235930853236746,0.00096677074242544,5,12.6,29.9
3.03333333333333,11.7133581835862,23.520857976788,0.00384427255432151,0.00148496402195405,5,12.5666666666667,29.9
3.06666666666667,11.7133581835862,23.520857976788,0.00571174426415923,0.00186747170983773,5,12.5333333333333,29.9
3.1,11.7133581835862,23.520857976788,0.00777334521644733,0.0020616009522881,5,12.5,29.9
3.13333333333333,11.7133581835862,23.520857976788,0.00981661448364345,0.00204326926719612,5,12.4666666666667,29.9
3.16666666666667,11.7133581835862,23.520857976788,0.0116314014760756,0.00181478699243219,5,12.4333333333333,29.9
3.2,11.7133581835862,23.520857976788,0.0130321312730046,0.001400729796929,5,12.4,29.9
3.23333333333333,11.7133581835862,23.520857976788,0.0138746820815753,0.000842550808570625,5,12.3666666666667,29.9
3.26666666666667,11.7133581835862,23.520857976788,0.014067252508761,0.000192570427185731,5,12.3333333333333,29.9
3.3,11.7133581835862,23.520857976788,0.0135751774232966,-0.000492075085464389,5,12.3,29.9
3.33333333333333,11.7133581835862,23.520857976788,0.0124201415548708,-0.0011550358684258,5,12.2666666666667,29.9
3.36666666666667,11.7133581835862,23.520857976788,0.0106746180505929,-0.00174552350427788,5,12.2333333333333,29.9
3.4,11.7133581835862,23.520857976788,0.00845261508126873,-0.00222200296932421,5,12.2,29.9
3.43333333333333,11.7133581835862,23.520857976788,0.00589794780538155,-0.00255466727588718,5,12.1666666666667,29.9
3.46666666666667,11.7133581835862,23.520857976788,0.00317127479335689,-0.00272667301202466,5,12.1333333333333,29.9
3.5,11.7133581835862,23.520857976788,0.000437063249212164,-0.00273421154414472,5,12.1,29.9
3.53333333333333,11.7133581835862,23.520857976788,0.00214850366602691,0.00171144041681474,5,12.0666666666667,29.9
3.56666666666667,11.7133581835862,23.520857976788,0.00444786882256347,0.00229936515653657,5,12.0333333333333,29.9
3.6,11.7133581835862,23.520857976788,0.00635011932195821,0.00190225049939474,5,12,29.9
3.63333333333333,11.7133581835862,23.520857976788,0.00777635247921514,0.00142623315725693,5,11.9666666666667,29.9
3.66666666666667,11.7133581835862,23.520857976788,0.00868229605951375,0.000905943580298603,5,11.9333333333333,29.9
3.7,11.7133581835862,23.520857976788,0.00905829897916128,0.000376002919647537,5,11.9,29.9
3.73333333333333,11.7133581835862,23.520857976788,0.00892698193062035,-0.000131317048540932,5,11.8666666666667,29.9
3.76666666666667,11.7133581835862,23.520857976788,0.00833896707440019,-0.00058801485622016,5,11.8333333333333,29.9
3.8,11.7133581835862,23.520857976788,0.007367189061185,-0.00097177801321519,5,11.8,29.9
3.83333333333333,11.7133581835862,23.520857976788,0.00610032688594449,-0.00126686217524051,5,11.7666666666667,29.9
3.86666666666667,11.7133581835862,23.520857976788,0.0046358911885902,-0.00146443569735429,5,11.7333333333333,29.9
3.9,11.7133581835862,23.520857976788,0.00307346071956872,-0.00156243046902148,5,11.7,29.9
3.93333333333333,11.7133581835862,23.520857976788,0.00150849249232038,-0.00156496822724834,5,11.6666666666667,29.9
3.96666666666667,11.7133581835862,23.520857976788,2.70411894294869e-05,-0.0014814513028909,5,11.6333333333333,29.9
4,11.7133581835862,23.520857976788,0.00129837665070032,0.00127133546127083,5,11.6,29.9
4.03333333333333,11.7133581835862,23.520857976788,0.00241164106328419,0.00111326441258387,5,11.5666666666667,29.9
4.06666666666667,11.7133581835862,23.520857976788,0.00327457565956719,0.000862934596283004,5,11.5333333333333,29.9
4.1,11.7133581835862,23.520857976788,0.00386723741065115,0.000592661751083951,5,11.5,29.9
4.13333333333333,11.7133581835862,23.520857976788,0.00418707692861226,0.000319839517961113,5,11.4666666666667,29.9
4.16666666666667,11.7133581835862,23.520857976788,0.00424715287589519,6.00759472829358e-05,5,11.4333333333333,29.9
4.2,11.7133581835862,23.520857976788,0.00407362115697734,-0.000173531718917852,5,11.4,29.9
4.23333333333333,11.7133581835862,23.520857976788,0.00370273779052045,-0.000370883366456893,5,11.3666666666667,29.9
4.26666666666667,11.7133581835862,23.520857976788,0.00317761514377889,-0.000525122646741554,5,11.3333333333333,29.9
4.3,11.7133581835862,23.520857976788,0.00254495680008694,-0.000632658343691951,5,11.3,29.9
4.33333333333333,11.7133581835862,23.520857976788,0.00185196965785114,-0.000692987142235805,5,11.2666666666667,29.9
4.36666666666667,11.7133581835862,23.520857976788,0.00114361624188887,-0.000708353415962264,5,11.2333333333333,29.9
4.4,11.7133581835862,23.520857976788,0.000460329077284811,-0.000683287164604064,5,11.2,29.9
4.43333333333333,11.7133581835862,23.520857976788,0.00016373435603513,-0.000296594721249681,5,11.1666666666667,29.9
4.46666666666667,11.7133581835862,23.520857976788,0.00070186010596588,0.00053812574993075,5,11.1333333333333,29.9
4.5,11.7133581835862,23.520857976788,0.00113537289012517,0.000433512784159287,5,11.1,29.9
4.53333333333333,11.7133581835862,23.520857976788,0.00145369501122624,0.000318322121101075,5,11.0666666666667,29.9
4.56666666666667,11.7133581835862,23.520857976788,0.00165393336398488,0.000200238352758642,5,11.0333333333333,29.9
4.6,11.7133581835862,23.520857976788,0.00174007859531958,8.6145231334697e-05,5,11,29.9
4.63333333333333,11.7133581835862,23.520857976788,0.00172191255951147,-1.81660358081145e-05,5,10.9666666666667,29.9
4.66666666666667,11.7133581835862,23.520857976788,0.00161372492335168,-0.000108187636159787,5,10.9333333333333,29.9
4.7,11.7133581835862,23.520857976788,0.00143293783229387,-0.000180787091057813,5,10.9,29.9
4.73333333333333,11.7133581835862,23.520857976788,0.00119872996642852,-0.000234207865865347,5,10.8666666666667,29.9
4.76666666666667,11.7133581835862,23.520857976788,0.000930739317282574,-0.000267990649145946,5,10.8333333333333,29.9
4.8,11.7133581835862,23.520857976788,0.000647908925074607,-0.000282830392207967,5,10.8,29.9
4.83333333333333,11.7133581835862,23.520857976788,0.000367522957498581,-0.000280385967576026,5,10.7666666666667,29.9
4.86666666666667,11.7133581835862,23.520857976788,0.000104463134329241,-0.00026305982316934,5,10.7333333333333,29.9
4.9,11.7133581835862,23.520857976788,0.000129301286524102,2.48381521948612e-05,5,10.7,29.9
4.93333333333333,11.7133581835862,23.520857976788,0.000324992029799461,0.000195690743275358,5,10.6666666666667,29.9
4.96666666666667,11.7133581835862,23.520857976788,0.00047708397966366,0.000152091949864199,5,10.6333333333333,29.9
5,11.7133581835862,23.520857976788,0.000583176570803221,0.000106092591139561,5,10.6,29.9
5.03333333333333,11.7133581835862,23.520857976788,0.000643707446022942,6.05308752197204e-05,5,10.5666666666667,29.9
5.06666666666667,11.7133581835862,23.520857976788,0.000661545975402683,1.78385293797415e-05,5,10.5333333333333,29.9
5.1,11.7133581835862,23.520857976788,0.000641505968343843,-2.00400070588397e-05,5,10.5,29.9
5.13333333333333,11.7133581835862,23.520857976788,0.000589816129843659,-5.16898385001841e-05,5,10.4666666666667,29.9
5.16666666666667,11.7133581835862,23.520857976788,0.000513583913981061,-7.62322158625988e-05,5,10.4333333333333,29.9
5.2,11.7133581835862,23.520857976788,0.000420283877269907,-9.33000367111533e-05,5,10.4,29.9
5.23333333333333,11.7133581835862,23.520857976788,0.000317295929534482,-0.000102987947735426,5,10.3666666666667,29.9
5.26666666666667,11.7133581835862,23.520857976788,0.000211512514555469,-0.000105783414979012,5,10.3333333333333,29.9
5.3,11.7133581835862,23.520857976788,0.000109027189339977,-0.000102485325215493,5,10.3,29.9
5.33333333333333,11.7133581835862,23.520857976788,1.49107173425064e-05,-9.41164719974703e-05,5,10.2666666666667,29.9
5.36666666666667,11.7133581835862,23.520857976788,6.69250155456491e-05,5.20142982031427e-05,5,10.2333333333333,29.9
5.4,11.7133581835862,23.520857976788,0.000133779956055157,6.68549405095079e-05,5,10.2,29.9
5.43333333333333,11.7133581835862,23.520857976788,0.00018414442907394,5.03644730187834e-05,5,10.1666666666667,29.9
5.46666666666667,11.7133581835862,23.520857976788,0.000217614950209756,3.34705211358154e-05,5,10.1333333333333,29.9
5.5,11.7133581835862,23.520857976788,0.000234760854220908,1.7145904011152e-05,5,10.1,29.9
5.53333333333333,11.7133581835862,23.520857976788,0.000236956124380553,2.19527015964552e-06,5,10.0666666666667,29.9
5.56666666666667,11.7133581835862,23.520857976788,0.000226190709508502,-1.07654148720513e-05,5,10.0333333333333,29.9
5.6,11.7133581835862,23.520857976788,0.000204874723133433,-2.13159863750688e-05,5,10,29.9
5.63333333333333,11.7133581835862,23.520857976788,0.00017564739885313,-2.92273242803032e-05,5,9.96666666666667,29.9
5.66666666666667,11.7133581835862,23.520857976788,0.000141200705133233,-3.44466937198967e-05,5,9.93333333333333,29.9
5.7,11.7133581835862,23.520857976788,0.000104125279059524,-3.70754260737096e-05,5,9.9,29.9
5.73333333333333,11.7133581835862,23.520857976788,6.67839890719434e-05,-3.73412899875802e-05,5,9.86666666666667,29.9
5.76666666666667,11.7133581835862,23.520857976788,6.73962993038464e-05,6.12310231902979e-07,5,9.83333333333334,29.9
5.8,11.7133548388255,23.5211596198332,0.0140100626875262,0.0139426663882223,5,9.8,29.9
5.83333333333333,11.7133465667471,23.5219056275501,0.0307342548745505,0.0167241921870244,5,9.76666666666667,29.9
5.86666666666667,11.7133324767878,23.5231762826588,0.0454828175554295,0.0147485626808789,5,9.73333333333333,29.9
5.9,11.7133126684158,23.5249625448522,0.061669111384504,0.0161862938290745,5,9.7,29.9
5.93333333333333,11.713285983957,23.5273686963422,0.0826704199569517,0.0210013085724477,4,9.66666666666667,29.9
5.96666666666667,11.7132484221537,23.5307553828214,0.120478938550752,0.0378085185938001,4,9.63333333333333,29.9
6,11.7131953958588,23.5355359185673,0.166267496261999,0.0457885577112477,4,9.6,29.9
6.03333333333333,11.7131252657298,23.5418574630999,0.212911457009238,0.0466439607472388,4,9.56666666666667,29.9
6.06666666666667,11.7130383802146,23.5496874708196,0.256764800274903,0.0438533432656646,4,9.53333333333333,29.9
6.1,11.7129354362589,23.5589614493569,0.299564370612907,0.0427995703380046,4,9.5,29.9
6.13333333333333,11.712816145345,23.5697032158649,0.344842453441012,0.0452780828281048,4,9.46666666666667,29.9
6.16666666666667,11.7126801999601,23.5819376860352,0.389133602215953,0.0442911487749403,4,9.43333333333333,29.9
6.2,11.7125279231911,23.5956322647579,0.432454729977888,0.0433211277619357,4,9.4,29.9
6.23333333333333,11.7123596253162,23.610754901798,0.474820754433291,0.0423660244554028,4,9.36666666666667,29.9
6.26666666666667,11.7121756081975,23.6272737669738,0.516226778927484,0.0414060244941927,4,9.33333333333333,29.9
6.3,11.7119761734775,23.6451566198984,0.556659475561504,0.0404326966340198,4,9.3,29.9
