Time,x_ego,y_ego,velocity,acceleration,action,x_ped,y_ped
0,11.8,8.9,5,0,1,15.5,29.9
0.0333333333333333,11.8000018538921,9.06660768884073,4.9964226168771,-0.00357738312290312,1,15.4972222222222,29.9
0.0666666666666667,11.8000137471414,9.23309265306198,4.9926475978086,-0.00377501906849442,1,15.4888888888889,29.9
0.1,11.800042752317,9.3994492964285,4.98873141255034,-0.00391618525826232,1,15.475,29.9
0.133333333333333,11.8000929442903,9.56567362222358,4.98471452034831,-0.0040168922020305,1,15.4555555555556,29.9
0.166666666666667,11.8001659184807,9.73176277989632,4.98062589612195,-0.00408862422635536,1,15.4305555555556,29.9
0.2,11.8002614269397,9.89771474040294,4.97648628944668,-0.00413960667527569,1,15.4,29.9
0.233333333333333,11.800377999265,10.0635280637572,4.97231056531554,-0.00417572413114087,1,15.3666666666667,29.9
0.266666666666667,11.8005134688612,10.2292017325466,4.96810937990087,-0.00420118541466863,1,15.3333333333333,29.9
0.3,11.8006653739776,10.3947350325972,4.96389037728167,-0.00421900261920261,1,15.3,29.9
0.333333333333333,11.8008312387908,10.5601274673454,4.95965904348599,-0.00423133379567275,1,15.2666666666667,29.9
0.366666666666667,11.8010087593371,10.7253786963339,4.95541931663387,-0.00423972685211993,1,15.2333333333333,29.9
0.4,11.8011959237247,10.8904884910059,4.95117402371319,-0.00424529292067977,1,15.2,29.9
0.433333333333333,11.8013910902645,11.0554567029247,4.94692519383677,-0.00424882987642849,1,15.1666666666667,29.9
0.466666666666667,11.8015930366391,11.2202832409322,4.94267428313638,-0.00425091070038874,1,15.1333333333333,29.9
0.5,11.8018009831821,11.3849680547483,4.93842233622488,-0.00425194691150033,1,15.1,29.9
0.533333333333333,11.8020145872352,11.5495111232138,4.9341701020678,-0.00425223415707254,1,15.0666666666667,29.9
0.566666666666667,11.8022339046869,11.7139124458846,4.92991811712469,-0.00425198494311729,1,15.0333333333333,29.9
0.6,11.8024593184495,11.8781720370451,4.92566676504177,-0.00425135208292104,1,15,29.9
0.633333333333333,11.8026914397326,12.0422899214657,4.92141631956332,-0.00425044547844333,1,14.9666666666667,29.9
0.666666666666667,11.8029309939957,12.2062661314131,4.9171669754211,-0.00424934414222378,1,14.9333333333333,29.9
0.7,11.8031787072472,12.3701007045565,4.91291887059633,-0.00424810482476889,1,14.9,29.9
0.733333333333333,11.8034352086696,12.5337936825036,4.90867210239304,-0.00424676820328695,1,14.8666666666667,29.9
0.766666666666667,11.8037009623038,12.6973451097725,4.90442673908773,-0.00424536330530945,1,14.8333333333333,29.9
0.8,11.8039762346533,12.8607550330561,4.90018282842247,-0.00424391066526209,1,14.8,29.9
0.833333333333333,11.8042610981094,13.0240235006808,4.89594040382094,-0.00424242460153224,1,14.7666666666667,29.9
0.866666666666667,11.8045554637509,13.1871505621888,4.89169948891028,-0.00424091491065592,1,14.7333333333333,29.9
0.9,11.8048591326917,13.3501362680072,4.88746010073028,-0.00423938818000114,1,14.7,29.9
0.933333333333333,11.8051718534877,13.5129806691788,4.88322225190384,-0.0042378488264383,1,14.6666666666667,29.9
0.966666666666667,11.8054933741882,13.6756838171477,4.87898595200537,-0.00423629989847374,1,14.6333333333333,29.9
1,11.805823480806,13.838245763594,4.87475120835622,-0.0042347436491541,1,14.6,29.9
1.03333333333333,11.8061620182846,14.000666560317,4.87051802646277,-0.00423318189344268,1,14.5666666666667,29.9
1.06666666666667,11.8065088943483,14.1629462591605,4.86628641027575,-0.0042316161870195,1,14.5333333333333,29.9
1.1,11.8068640699958,14.3250849119751,4.86205636239358,-0.0042300478821744,1,14.5,29.9
1.13333333333333,11.8072275422819,14.4870825706055,4.85782788427426,-0.00422847811932225,1,14.4666666666667,29.9
1.16666666666667,11.8075993252918,14.6489392868938,4.85360097647318,-0.00422690780107615,1,14.4333333333333,29.9
1.2,11.8079794341087,14.8106551126874,4.84937563889516,-0.00422533757801791,1,14.4,29.9
1.23333333333333,11.8083678746431,14.9722300998448,4.84515187103614,-0.00422376785902401,1,14.3666666666667,29.9
1.26666666666667,11.808764640041,15.133664300235,4.84092967218905,-0.00422219884708586,1,14.3333333333333,29.9
1.3,11.8091697125719,15.29495776573,4.83670904159476,-0.00422063059429423,1,14.3,29.9
1.33333333333333,11.809583068775,15.4561105481925,4.83248997852958,-0.00421906306518061,1,14.2666666666667,29.9
1.36666666666667,11.8100046845876,15.6171223361418,4.82825068344944,-0.00423929508013643,1,14.2333333333333,29.9
1.4,11.8104342339844,15.7778485796738,4.81535880063065,-0.0128918828187912,1,14.2,29.9
1.43333333333333,11.8108711915711,15.9380586479588,4.7972816867353,-0.0180771138953473,3,14.1666666666667,29.9
1.46666666666667,11.8113152493321,16.0976374896027,4.77748669343574,-0.01979499329956,3,14.1333333333333,29.9
1.5,11.811766262727,16.2565565603883,4.75769689535236,-0.0197897980833872,3,14.1,29.9
1.53333333333333,11.8122241299522,16.4148160436691,4.73791289701725,-0.0197839983351056,3,14.0666666666667,29.9
1.56666666666667,11.8126887311071,16.5724161398528,4.7181351286726,-0.0197777683446549,3,14.0333333333333,29.9
1.6,11.8131599318661,16.7293570615014,4.69836389337074,-0.0197712353018558,3,14,29.9
1.63333333333333,11.8136375885968,16.8856390298123,4.67859940151477,-0.0197644918559687,3,13.9666666666667,29.9
1.66666666666667,11.8141216276572,17.0412909744464,4.66056391003367,-0.0180354914811058,3,13.9333333333333,29.9
1.7,11.8146119819832,17.1963418242452,4.64253514052632,-0.0180287695073416,3,13.9,29.9
1.73333333333333,11.8151084473416,17.3507631008654,4.62279094209462,-0.0197441984317042,3,13.8666666666667,29.9
1.76666666666667,11.8156108302819,17.5045263301202,4.60305366436286,-0.0197372777317586,3,13.8333333333333,29.9
1.8,11.8161190248126,17.6576317448756,4.58332339622877,-0.0197302681340883,3,13.8,29.9
1.83333333333333,11.8166329362788,17.8100795803612,4.56360020385326,-0.0197231923755137,3,13.7666666666667,29.9
1.86666666666667,11.8171523134247,17.9618123054028,4.54041810785157,-0.0231820960016913,3,13.7333333333333,29.9
1.9,11.8176768193293,18.1127436977074,4.51552157695623,-0.0248965308953375,3,13.7,29.9
1.93333333333333,11.8182061009916,18.2627875516274,4.48716718502823,-0.0283543919280049,3,13.6666666666667,29.9
1.96666666666667,11.8187395238386,18.411771213065,4.45191147887866,-0.0352557061495631,3,13.6333333333333,29.9
2,11.8192764151298,18.5595220662861,4.41320010710183,-0.0387113717768317,3,13.6,29.9
2.03333333333333,11.819816321995,18.7059536454029,4.37275639041192,-0.0404437166899116,3,13.5666666666667,29.9
2.06666666666667,11.8203587554879,18.850979883396,4.32888096723374,-0.0438754231781804,3,13.5333333333333,29.9
2.1,11.8209031951042,18.9945147483664,4.2832752654954,-0.0456057017383378,3,13.5,29.9
2.13333333333333,11.8214490919199,19.1364722409899,4.23423985658757,-0.0490354089078258,3,13.4666666666667,29.9
2.16666666666667,11.8219953990098,19.2766225196857,4.17484372012189,-0.059396136465689,3,13.4333333333333,29.9
2.2,11.8225407417361,19.4146489641828,4.10681107307258,-0.0680326470493036,3,13.4,29.9
2.23333333333333,11.8230839835307,19.5503214969165,4.03361024159959,-0.0732008314729917,3,13.3666666666667,29.9
2.26666666666667,11.8236243346793,19.683525282708,3.95868745399955,-0.0749227876000385,3,13.3333333333333,29.9
2.3,11.8241611730052,19.8142033096706,3.88206592198528,-0.076621532014268,3,13.3,29.9
2.33333333333333,11.8246937555839,19.9422699063306,3.80200285664198,-0.0800630653433072,3,13.2666666666667,29.9
2.36666666666667,11.8252210144774,20.0675529707993,3.71505518697524,-0.0869476696667375,3,13.2333333333333,29.9
2.4,11.8257418614486,20.1898804501721,3.62466877228238,-0.0903864146928606,3,13.2,29.9
2.43333333333333,11.8262553966293,20.3091377453128,3.53084491698622,-0.0938238552961561,3,13.1666666666667,29.9
2.46666666666667,11.82676081591,20.4252393664067,3.43532876673972,-0.0955161502465018,3,13.1333333333333,29.9
2.5,11.8272575271176,20.5381576284187,3.3398433755317,-0.0954853912080176,3,13.1,29.9
2.53333333333333,11.8277450541742,20.6478935740532,3.24438930577173,-0.0954540697599757,3,13.0666666666667,29.9
2.56666666666667,11.8282229386986,20.7544482620601,3.1489669368459,-0.0954223689258269,3,13.0333333333333,29.9
2.6,11.8286906340823,20.8577940588256,3.05185440037904,-0.0971125364668595,3,13,29.9
2.63333333333333,11.8291476172429,20.9579033407411,2.95477423208282,-0.0970801682962259,3,12.9666666666667,29.9
2.66666666666667,11.8295935005605,21.0547771943236,2.85772665495309,-0.0970475771297248,3,12.9333333333333,29.9
2.7,11.8300279207154,21.1484167095295,2.76071181129087,-0.0970148436622202,3,12.9,29.9
2.73333333333333,11.8304505370612,21.2388229773454,2.6637297727013,-0.0969820385895739,3,12.8666666666667,29.9
2.76666666666667,11.8308609108905,21.3259680222427,2.5650366060119,-0.0986931666893964,3,12.8333333333333,29.9
2.8,11.8312584998033,21.4097951682186,2.46465425840253,-0.100382347609366,3,12.8,29.9
2.83333333333333,11.8316428870162,21.4902768109721,2.36430505777285,-0.100349200629685,3,12.7666666666667,29.9
2.86666666666667,11.8320136623258,21.5673853503645,2.26226686956001,-0.102038188212842,3,12.7333333333333,29.9
2.9,11.8323704276179,21.6410942468038,2.16039563653337,-0.101871233026634,3,12.7,29.9
2.93333333333333,11.8327129800429,21.7114218667511,2.05959453057715,-0.100801105956225,3,12.6666666666667,29.9
2.96666666666667,11.833041273151,21.7784208347197,1.96075429777247,-0.0988402328046758,3,12.6333333333333,29.9
3,11.8333553545755,21.8421619277287,1.86413244148318,-0.0966218562892893,3,12.6,29.9
3.03333333333333,11.8336553084123,21.9027194764399,1.7697340862421,-0.0943983552410819,3,12.5666666666667,29.9
3.06666666666667,11.8339412361837,21.9601663652226,1.67746851045788,-0.0922655757842235,3,12.5333333333333,29.9
3.1,11.8342132476649,22.0145717438699,1.58722911147052,-0.0902393989873551,3,12.5,29.9
3.13333333333333,11.8344714651064,22.0660021504142,1.49895743609979,-0.0882716753707284,3,12.4666666666667,29.9
3.16666666666667,11.8347161487681,22.1145505894298,1.41429523129207,-0.0846622048077197,3,12.4333333333333,29.9
3.2,11.8349476958232,22.160336199175,1.33317720967686,-0.0811180216152105,3,12.4,29.9
3.23333333333333,11.8351663917851,22.203447460013,1.25381837200017,-0.0793588376766894,3,12.3666666666667,29.9
3.26666666666667,11.8353725332224,22.2439706753003,1.17788047998322,-0.075937892016952,3,12.3333333333333,29.9
3.3,11.8355665510137,22.2820184155323,1.10527971150885,-0.0726007684743706,3,12.3,29.9
3.33333333333333,11.8357487582566,22.3176727799414,1.03428177810023,-0.0709979334086226,3,12.2666666666667,29.9
3.36666666666667,11.8359193581313,22.3509878927948,0.964930203364393,-0.0693515747358355,3,12.2333333333333,29.9
3.4,11.8360785708604,22.3820192385619,0.897258612420882,-0.0676715909435106,3,12.2,29.9
3.43333333333333,11.836226756243,22.4108515327601,0.832972771724025,-0.0642858406968578,3,12.1666666666667,29.9
3.46666666666667,11.8363644016814,22.4375961891572,0.771978284115957,-0.0609944876080678,3,12.1333333333333,29.9
3.5,11.8364919842342,22.4623605684031,0.714137895718514,-0.0578403883974425,3,12.1,29.9
3.53333333333333,11.8366099706565,22.4852481510912,0.659355641814044,-0.05478225390447,3,12.0666666666667,29.9
3.56666666666667,11.8367188240069,22.5063601702824,0.607601244085832,-0.0517543977282118,3,12.0333333333333,29.9
3.6,11.8368190093271,22.525797024552,0.558842804328881,-0.0487584397569518,3,12,29.9
3.63333333333333,11.8369109943756,22.5436585806534,0.513077778961336,-0.0457650253675443,3,11.9666666666667,29.9
3.66666666666667,11.8369953767965,22.5600723365428,0.471966308660999,-0.0411114703003371,3,11.9333333333333,29.9
3.7,11.8370728816928,22.5751928323671,0.435470214738898,-0.0364960939221014,3,11.9,29.9
3.73333333333333,11.8371438370354,22.5890860948922,0.398317275080274,-0.0371529396586236,3,11.8666666666667,29.9
3.76666666666667,11.8372081664015,22.6017284857947,0.360406920916118,-0.0379103541641562,3,11.8333333333333,29.9
3.8,11.8372659144453,22.6131228446417,0.323426950703434,-0.0369799702126839,3,11.8,29.9
3.83333333333333,11.8373172499499,22.6232994108051,0.287331870142421,-0.0360950805610128,3,11.7666666666667,29.9
3.86666666666667,11.8373623340613,22.6322870215934,0.252082627913032,-0.0352492422293888,3,11.7333333333333,29.9
3.9,11.8374013205483,22.6401133020966,0.21764518226921,-0.0344374456438222,3,11.7,29.9
3.93333333333333,11.8374343576396,22.6468051659444,0.184025052142143,-0.0336201301270674,3,11.6666666666667,29.9
3.96666666666667,11.8374615975509,22.6523909708615,0.151288910573025,-0.0327361415691177,3,11.6333333333333,29.9
4,11.8374831986163,22.6569010251643,0.119482740993415,-0.0318061695796105,3,11.6,29.9
4.03333333333333,11.83749932156,22.6603667909692,0.0886311148483945,-0.0308516261450202,3,11.5666666666667,29.9
4.06666666666667,11.8375102592291,22.6628493141429,0.0604841672246754,-0.0281469476237191,3,11.5333333333333,29.9
4.1,11.8375163009178,22.6644094721736,0.0332832031819442,-0.0272009640427311,3,11.5,29.9
4.13333333333333,11.8375178593648,22.6651357922233,0.0104458751902214,-0.0228373279917228,3,11.4666666666667,29.9
4.16666666666667,11.8375156508803,22.6651839199648,0.00155144101099479,-0.00889443417922665,5,11.4333333333333,29.9
4.2,11.837512319742,22.6651326104876,0.000150285815765409,-0.00140115519522938,5,11.4,29.9
4.23333333333333,11.837512319742,22.6651326104876,1.74448404401469e-05,-0.000132840975325262,5,11.3666666666667,29.9
4.26666666666667,11.837512319742,22.6651326104876,0.000313136108993104,0.000295691268552957,5,11.3333333333333,29.9
4.3,11.837512319742,22.6651326104876,0.000799975747955106,0.000486839638962002,5,11.3,29.9
4.33333333333333,11.8375134424159,22.6653788422246,0.0105009493423798,0.00970097359442473,5,11.2666666666667,29.9
4.36666666666667,11.8375158755793,22.6659125079438,0.0217329424846599,0.0112319931422801,5,11.2333333333333,29.9
4.4,11.8375206688692,22.6669636793473,0.0415238752264534,0.0197909327417935,4,11.2,29.9
4.43333333333333,11.8375292465462,22.6688443448475,0.0714478206432095,0.029923945416756,4,11.1666666666667,29.9
4.46666666666667,11.8375427445442,22.6718026476992,0.106127227277937,0.0346794066347272,4,11.1333333333333,29.9
4.5,11.8375614859003,22.6759073064522,0.140188656611423,0.034061429333486,4,11.1,29.9
4.53333333333333,11.8375853826836,22.6811352730289,0.173495812284225,0.0333071556728024,4,11.0666666666667,29.9
4.56666666666667,11.8376143395037,22.6874598557376,0.205959495467327,0.0324636831831016,4,11.0333333333333,29.9
4.6,11.837648391478,22.6948806819533,0.239245310673933,0.0332858152066058,4,11,29.9
4.63333333333333,11.837687711428,22.7034249971924,0.273356003158904,0.0341106924849712,4,10.9666666666667,29.9
4.66666666666667,11.8377324920597,22.7131215472648,0.308365696136324,0.0350096929774198,4,10.9333333333333,29.9
4.7,11.837782815921,22.7239718550725,0.342567455743334,0.0342017596070101,4,10.9,29.9
4.73333333333333,11.8378390460708,22.7360358436392,0.381172477659004,0.0386050219156702,4,10.8666666666667,29.9
4.76666666666667,11.8379016927149,22.7494024563478,0.420712172695697,0.0395396950366935,4,10.8333333333333,29.9
4.8,11.8379711508461,22.7641319876483,0.462937887336941,0.0422257146412439,4,10.8,29.9
4.83333333333333,11.8380476959605,22.780255259076,0.504325976405384,0.0413880890684423,4,10.7666666666667,29.9
4.86666666666667,11.8381313446074,22.7977434885752,0.544829540845937,0.0405035644405531,4,10.7333333333333,29.9
4.9,11.8382221165411,22.8165666242585,0.584419008980571,0.0395894681346346,4,10.7,29.9
4.93333333333333,11.8383200322974,22.8366939020762,0.623079482728432,0.0386604737478609,4,10.6666666666667,29.9
4.96666666666667,11.8384251094159,22.8580942602565,0.660806730482381,0.0377272477539493,4,10.6333333333333,29.9
5,11.8385373577444,22.8807366463543,0.697606110224963,0.0367993797425813,4,10.6,29.9
5.03333333333333,11.8386567762646,22.9045906794123,0.733517417746984,0.0359113075220208,4,10.5666666666667,29.9
5.06666666666667,11.8387833521963,22.9296277516875,0.76859852280273,0.035081105055746,4,10.5333333333333,29.9
5.1,11.8389170556676,22.9558210239208,0.802897357897233,0.0342988350945033,4,10.5,29.9
5.13333333333333,11.8390578338922,22.9831451040826,0.836453398526366,0.0335560406291331,4,10.4666666666667,29.9
5.16666666666667,11.8392056069413,23.0115758022986,0.869299769300134,0.0328463707737685,4,10.4333333333333,29.9
5.2,11.8393602652738,23.0410899467684,0.901464794764604,0.0321650254644693,4,10.4,29.9
5.23333333333333,11.8395216687077,23.0716651559264,0.932962358294985,0.0314975635303812,4,10.3666666666667,29.9
5.26666666666667,11.8396896431135,23.1032787509379,0.963762408742362,0.030800050447377,4,10.3333333333333,29.9
5.3,11.8398639802303,23.1359069858569,0.993838395363761,0.0300759866213987,4,10.3,29.9
5.33333333333333,11.8400444446857,23.169525495382,1.023178420958,0.0293400255942373,4,10.2666666666667,29.9
5.36666666666667,11.8402307820467,23.2041096673853,1.05177913196023,0.0286007110022344,4,10.2333333333333,29.9
5.4,11.8404227275004,23.2396349170058,1.07964535392213,0.027866221961893,4,10.2,29.9
5.43333333333333,11.8406200151138,23.2760769308678,1.10678811192639,0.0271427580042616,4,10.1666666666667,29.9
5.46666666666667,11.8408223870312,23.3134118377424,1.13322252453793,0.0264344126115446,4,10.1333333333333,29.9
5.5,11.8410296025881,23.3516164007362,1.15897511891388,0.0257525943759491,4,10.1,29.9
5.53333333333333,11.8412414488185,23.3906686419894,1.184091424039,0.0251163051251191,4,10.0666666666667,29.9
5.56666666666667,11.8414578186473,23.4305480527174,1.20861223568771,0.0245208116487152,4,10.0333333333333,29.9
5.6,11.8416789196729,23.4712353692237,1.23257185237237,0.0239596166846598,4,10,29.9
5.63333333333333,11.8419050416212,23.5127123836932,1.2559995758158,0.0234277234434235,4,9.96666666666667,29.9
5.66666666666667,11.8421364654203,23.5549617977872,1.27892083572379,0.0229212599079953,4,9.93333333333333,29.9
5.7,11.8423734454908,23.5979671083093,1.30135802674798,0.0224371910241863,4,9.9,29.9
5.73333333333333,11.8426162841022,23.6417125166748,1.32333114164943,0.021973114901453,4,9.86666666666667,29.9
5.76666666666667,11.8428655757804,23.6861828557512,1.34485823857286,0.0215270969234254,4,9.83333333333334,29.9
5.8,11.8431219922876,23.7313635300565,1.36595519040942,0.0210969518365667,4,9.8,29.9
5.83333333333333,11.8433864334997,23.7772403197337,1.38662694778509,0.0206717573756696,4,9.76666666666667,29.9
5.86666666666667,11.8436596821326,23.8237990253653,1.40687277576236,0.0202458279772613,4,9.73333333333333,29.9
5.9,11.8439422708535,23.871025491049,1.42669605014935,0.0198232743869922,4,9.7,29.9
5.93333333333333,11.8442344653361,23.9189058435534,1.44611997138904,0.0194239212396969,4,9.66666666666667,29.9
5.96666666666667,11.8445362791623,23.967429493531,1.46536009566352,0.019240124274478,4,9.63333333333333,29.9
6,11.8448475365824,24.0165981332517,1.48492768091585,0.0195675852523307,4,9.6,29.9
6.03333333333333,11.8451679508872,24.0664344517303,1.50556406822232,0.0206363873064694,4,9.56666666666667,29.9
6.06666666666667,11.8454972079935,24.1169889724145,1.52818616779625,0.0226220995739248,4,9.53333333333333,29.9
6.1,11.8458350522028,24.1683450801258,1.55385221295089,0.0256660451546418,4,9.5,29.9
6.13333333333333,11.8461813806555,24.2206242158924,1.58377492051487,0.0299227075639827,4,9.46666666666667,29.9
6.16666666666667,11.8465363242593,24.2739876586861,1.61908543474974,0.0353105142348631,4,9.43333333333333,29.9
6.2,11.8469002927296,24.3286314202404,1.66073408536229,0.0416486506125575,4,9.4,29.9
6.23333333333333,11.8472740023207,24.3847786976957,1.70938390147834,0.0486498161160511,4,9.36666666666667,29.9
6.26666666666667,11.8476584825356,24.4426699572089,1.76541751392069,0.0560336124423473,4,9.33333333333333,29.9
6.3,11.8480550766455,24.5025541904529,1.82896636293635,0.0635488490156582,4,9.3,29.9
6.33333333333333,11.8484654267573,24.5646803024988,1.89988198303467,0.0709156200983254,4,9.26666666666667,29.9
6.36666666666667,11.8488914331441,24.6292874288115,1.97774712870394,0.0778651456692625,4,9.23333333333333,29.9
6.4,11.8493352057773,24.696598051095,2.06199214602971,0.0842450173257741,4,9.2,29.9
