Time,x_ego,y_ego,velocity,acceleration,action,x_ped,y_ped
0,11.8,15.9,7,0,1,15.5,29.9
0.0333333333333333,11.8000033352482,16.1332703793902,6.99615578502647,-0.00384421497352516,1,15.5,29.9
0.0666666666666667,11.8000242039131,16.36640659865,6.99196953179015,-0.0041862532363206,1,15.5,29.9
0.1,11.8000739008388,16.5994007538279,6.98769519447533,-0.0042743373148193,1,15.5,29.9
0.133333333333333,11.8001582830414,16.8322537788342,6.98349808894416,-0.00419710553117181,1,15.5,29.9
0.166666666666667,11.800279393109,17.0649678608344,6.97935655021923,-0.00414153872493106,1,15.5,29.9
0.2,11.8004369138682,17.2975445730875,6.97525503719279,-0.00410151302643946,1,15.5,29.9
0.233333333333333,11.800629282733,17.5299850494697,6.97118241654855,-0.00407262064423808,1,15.5,29.9
0.266666666666667,11.8008544289405,17.7622901096348,6.96713072179862,-0.00405169474993095,1,15.5,29.9
0.3,11.8011101869396,17.9944603485966,6.96309425533199,-0.00403646646663791,1,15.5,29.9
0.333333333333333,11.8013944827277,18.2264962007482,6.95906894136517,-0.00402531396681294,1,15.5,29.9
0.366666666666667,11.8017053946636,18.4583979855791,6.95505186236178,-0.00401707900339243,1,15.5,29.9
0.4,11.8020411692978,18.690165940312,6.95104092840305,-0.00401093395872909,1,15.5,29.9
0.433333333333333,11.802400240286,18.921800243193,6.94703464183062,-0.00400628657242752,1,15.5,29.9
0.466666666666667,11.8027812665766,19.1533010301029,6.94303192955814,-0.00400271227248705,1,15.5,29.9
0.5,11.8031831827388,19.3846684063972,6.93903202321859,-0.00399990633954594,1,15.5,29.9
0.533333333333333,11.8036052428412,19.6159024553546,6.93503437312759,-0.0039976500910015,1,15.5,29.9
0.566666666666667,11.8040470389818,19.8470032442231,6.93103858627537,-0.00399578685221691,1,15.5,29.9
0.6,11.8045076881457,20.0779708297125,6.9270443414151,-0.00399424486026856,1,15.5,29.9
0.633333333333333,11.8049839782877,20.3088052642444,6.92305142770898,-0.0039929137061252,1,15.5,29.9
0.666666666666667,11.805472727154,20.5395065954873,6.91905969886961,-0.00399172883937204,1,15.5,29.9
0.7,11.8059686124475,20.7700748715437,6.91506903686608,-0.00399066200352571,1,15.5,29.9
0.733333333333333,11.8064645151373,21.0005101421031,6.91107938697395,-0.00398964989212658,1,15.5,29.9
0.766666666666667,11.8069530880728,21.2308124565279,6.90709075482567,-0.00398863214828538,1,15.5,29.9
0.8,11.8074283798661,21.4609818607674,6.90310312046393,-0.00398763436173422,1,15.5,29.9
0.833333333333333,11.8078804099312,21.6910184068892,6.89911648507022,-0.00398663539371391,1,15.5,29.9
0.866666666666667,11.8082954901092,21.9209221520904,6.89513092885138,-0.00398555621884444,1,15.5,29.9
0.9,11.8086588199864,22.1506931521305,6.89114655571698,-0.00398437313439537,1,15.5,29.9
0.933333333333333,11.8089575946867,22.3803314531449,6.88716344371199,-0.00398311200498824,1,15.5,29.9
0.966666666666667,11.8091802165107,22.6098370910379,6.88318157357174,-0.00398187014025631,1,15.5,29.9
1,11.8093214483264,22.8392100824278,6.87920074724066,-0.00398082633107233,1,15.5,29.9
1.03333333333333,11.8093815903495,23.0684504294899,6.87522073958235,-0.00398000765830986,1,15.5,29.9
1.06666666666667,11.809364191234,23.2975581282468,6.87124138765197,-0.00397935193038723,1,15.5,29.9
1.1,11.8092743609334,23.52653317491,6.86726261796314,-0.00397876968882471,1,15.5,29.9
1.13333333333333,11.8091176581538,23.7553755696373,6.86328443030841,-0.00397818765473623,1,15.5,29.9
1.16666666666667,11.8088994368193,23.9840853180055,6.85930686626624,-0.00397756404216842,1,15.5,29.9
1.2,11.8086245079148,24.2126624309206,6.85532998149079,-0.00397688477544822,1,15.5,29.9
1.23333333333333,11.8082969874532,24.4411069237008,6.85135382885521,-0.00397615263557949,1,15.5,29.9
1.26666666666667,11.8079202379692,24.6694188148659,6.84737845163037,-0.00397537722484387,1,15.5,29.9
1.3,11.8074968522195,24.8975981249449,6.84340388290182,-0.00397456872854818,1,15.5,29.9
1.33333333333333,11.8070286614001,25.1256448754454,6.83943014754849,-0.00397373535332868,1,15.5,29.9
1.36666666666667,11.8065167702143,25.3535590880383,6.83545726442323,-0.00397288312526101,1,15.5,29.9
1.4,11.8059616272023,25.5813407839701,6.83148524773432,-0.00397201668890634,1,15.5,29.9
1.43333333333333,11.8053631343971,25.808989983699,6.82751410755871,-0.00397114017560796,1,15.5,29.9
1.46666666666667,11.804720790905,26.0365067067443,6.8235438498568,-0.00397025770191117,1,15.5,29.9
1.5,11.8040338555692,26.2638909717243,6.81957447642831,-0.0039693734284878,1,15.5,29.9
1.53333333333333,11.8033015081701,26.491142796543,6.81560598512455,-0.0039684913037652,1,15.4972222222222,29.9
1.56666666666667,11.8025229882803,26.7182621986704,6.81163837045717,-0.00396761466738393,1,15.4888888888889,29.9
1.6,11.8016976956063,26.9452491954509,6.80767162459115,-0.00396674586601531,1,15.475,29.9
1.63333333333333,11.8008252436865,27.1721038043778,6.80370573859691,-0.00396588599424241,1,15.4555555555556,29.9
1.66666666666667,11.7999054678087,27.3988260432859,6.79974070376215,-0.0039650348347573,1,15.4305555555556,29.9
1.7,11.798938395744,27.6254159304387,6.79577651273516,-0.00396419102698786,1,15.4,29.9
1.73333333333333,11.797924194793,27.8518734845127,6.79181316029919,-0.00396335243597168,1,15.3666666666667,29.9
1.76666666666667,11.7968631100953,28.0781987245026,6.78785064366292,-0.00396251663626668,1,15.3333333333333,29.9
1.8,11.7957554074344,28.3043916695855,6.78388896227022,-0.0039616813927017,1,15.3,29.9
1.83333333333333,11.7946013298282,28.5304523389818,6.77992811724327,-0.00396084502695526,1,15.2666666666667,29.9
1.86666666666667,11.793401072278,28.7563807518461,6.77596811064099,-0.00396000660228069,1,15.2333333333333,29.9
1.9,11.7921547743916,28.9821769272055,6.77200894472339,-0.00395916591759793,1,15.2,29.9
1.93333333333333,11.7908625270965,29.2078408839483,6.7680506213708,-0.00395832335258639,1,15.1666666666667,29.9
1.96666666666667,11.7895243877976,29.4333726408553,6.76409314173844,-0.00395747963236115,1,15.1333333333333,29.9
2,11.788140398119,29.6587722166541,6.76013650615629,-0.00395663558215364,1,15.1,29.9
2.03333333333333,11.7867105994318,29.8840396335132,6.75618108923019,-0.00395541692609935,1,15.0666666666667,29.9
2.06666666666667,11.7852350431027,30.1091749468067,6.75222851131916,-0.00395257791102477,1,15.0333333333333,29.9
2.1,11.7837137945989,30.334178279413,6.74828109959719,-0.00394741172197133,1,15,29.9
2.13333333333333,11.7821477487378,30.5590498437998,6.74434149987445,-0.00393959972274516,1,14.9666666666667,29.9
2.16666666666667,11.7805404834844,30.7837899634814,6.74041254241958,-0.00392895745487198,1,14.9333333333333,29.9
2.2,11.7788956686274,31.0083990570033,6.73649683978764,-0.00391570263193763,1,14.9,29.9
2.23333333333333,11.7772189927873,31.2328776431542,6.73259688478617,-0.00389995500146334,1,14.8666666666667,29.9
2.26666666666667,11.7755172059676,31.4572263400912,6.72871557271903,-0.00388131206714526,1,14.8333333333333,29.9
2.3,11.7737952722044,31.6814458580026,6.72485614026838,-0.00385943245065334,1,14.8,29.9
2.33333333333333,11.772058118656,31.9055370180253,6.7210219274634,-0.00383421280497309,1,14.7666666666667,29.9
2.36666666666667,11.770308350625,32.1295007331797,6.71721603931874,-0.0038058881446581,1,14.7333333333333,29.9
2.4,11.7685463588159,32.3533379918449,6.71344082890021,-0.00377521041853512,1,14.7,29.9
2.43333333333333,11.7667711853348,32.5770498322925,6.70969754406514,-0.00374328483506936,1,14.6666666666667,29.9
2.46666666666667,11.7649811691211,32.8006373102423,6.70598636934915,-0.00371117471599014,1,14.6333333333333,29.9
2.5,11.7631743471624,33.0241054483442,6.70281095075873,-0.00317541859041537,1,14.6,29.9
2.53333333333333,11.761348316942,33.2475164259989,6.70311826111312,0.000307310354390467,1,14.5666666666667,29.9
2.56666666666667,11.7595008904913,33.4710268499437,6.7089563397173,0.00583807860417984,1,14.5333333333333,29.9
2.6,11.7576324168849,33.6948306725043,6.72071297589372,0.0117566361764112,1,14.5,29.9
2.63333333333333,11.7557427565886,33.9191216887493,6.73813587027346,0.0174228943797408,1,14.4666666666667,29.9
2.66666666666667,11.753830754252,34.1440810259045,6.76072473444524,0.0225888641717837,4,14.4333333333333,29.9
2.7,11.7518946743688,34.3698718152451,6.78794650654427,0.0272217720990318,4,14.4,29.9
2.73333333333333,11.7499325630227,34.5966387537701,6.81919807139177,0.0312515648475005,4,14.3666666666667,29.9
2.76666666666667,11.7479425343765,34.8245058086447,6.85386966681583,0.0346715954240588,4,14.3333333333333,29.9
2.8,11.7459229185368,35.0535777594059,6.89142057698975,0.0375509101739153,4,14.3,29.9
2.83333333333333,11.7438723049883,35.2839425074769,6.93137757882347,0.0399570018337245,4,14.2666666666667,29.9
2.86666666666667,11.741789517176,35.5156732050012,6.97332773135467,0.0419501525312036,4,14.2333333333333,29.9
2.9,11.7396735525015,35.7488301611837,7.01691238838676,0.0435846570320804,4,14.2,29.9
2.93333333333333,11.7375235175575,35.9834625635162,7.06182198394073,0.0449095955539791,4,14.1666666666667,29.9
2.96666666666667,11.7353385788714,36.2196100314547,7.1077911532751,0.045969169334362,4,14.1333333333333,29.9
3,11.7331179379139,36.4573040106293,7.15459403177708,0.0468028785019845,4,14.1,29.9
3.03333333333333,11.7308608290597,36.69656901305,7.20203971712374,0.0474456853466592,4,14.0666666666667,29.9
3.06666666666667,11.7285665326374,36.9374237094482,7.24996794065664,0.0479282235329013,4,14.0333333333333,29.9
3.1,11.7262343928331,37.1798818795872,7.29824467735618,0.0482767366995382,4,14,29.9
3.13333333333333,11.7238638318859,37.4239531753205,7.34675468419135,0.0485100068351674,4,13.9666666666667,29.9
3.16666666666667,11.7214543558191,37.6696436159199,7.39539540602812,0.0486407218367777,4,13.9333333333333,29.9
3.2,11.7190055479844,37.9169560789528,7.44408153559517,0.0486861295670478,4,13.9,29.9
3.23333333333333,11.7165170518846,38.1658908651694,7.49273977256157,0.0486582369663981,4,13.8666666666667,29.9
3.26666666666667,11.7139885579453,38.4164452524653,7.5412535085169,0.0485137359553294,4,13.8333333333333,29.9
3.3,11.7114197978042,38.6686122326302,7.58949576384281,0.0482422553259134,4,13.8,29.9
3.33333333333333,11.7088105257026,38.922381022659,7.63737100018441,0.0478752363415955,4,13.7666666666667,29.9
3.36666666666667,11.7061604953702,39.1777386569858,7.68484308997851,0.0474720897940992,4,13.7333333333333,29.9
3.4,11.7034694464099,39.4346712451536,7.73188227038395,0.0470391804054451,4,13.7,29.9
