Time,x_ego,y_ego,velocity,acceleration,action,x_ped,y_ped
0,11.8,8.9,5,0,1,15.5,29.9
0.0333333333333333,11.8000042639419,9.06660768883574,4.99642262753217,-0.00357737246783252,1,15.5,29.9
0.0666666666666667,11.8000316183523,9.23309265283679,4.99264772639562,-0.00377490113654755,1,15.5,29.9
0.1,11.8000983301086,9.3994492943029,4.98873189015102,-0.00391583624460079,1,15.5,29.9
0.133333333333333,11.8002137714057,9.56567361239838,4.98471560171126,-0.00401628843975921,1,15.5,29.9
0.166666666666667,11.8003816117201,9.73176274936765,4.9806277503672,-0.00408785134405676,1,15.5,29.9
0.2,11.8006012807972,9.89771466676994,4.97648894816197,-0.00413880220523488,1,15.5,29.9
0.233333333333333,11.8008693967493,10.063527914737,4.97231393273914,-0.00417501542283105,1,15.5,29.9
0.266666666666667,11.8011809764475,10.2292014672423,4.9681132788391,-0.00420065390004165,1,15.5,29.9
0.3,11.8015303579013,10.3947346039881,4.96389460146446,-0.00421867737463621,1,15.5,29.9
0.333333333333333,11.8019118467442,10.5601268252425,4.95966339823921,-0.00423120322524806,1,15.5,29.9
0.366666666666667,11.8023201438739,10.7253777901123,4.95542364242562,-0.00423975581358782,1,15.5,29.9
0.4,11.8027506219397,10.8904872716491,4.95117820511487,-0.004245437310753,1,15.5,29.9
0.433333333333333,11.8031995050437,11.0554551241621,4.94692915911269,-0.00424904600217602,1,15.5,29.9
0.466666666666667,11.8036639818332,11.2202812594597,4.94267799905113,-0.0042511600615649,1,15.5,29.9
0.5,11.8041422590462,11.3849656296634,4.93842580095256,-0.00425219809856525,1,15.5,29.9
0.533333333333333,11.8046335485356,11.549508214881,4.93417333764271,-0.00425246330985551,1,15.5,29.9
0.566666666666667,11.805137978812,11.7139090144838,4.92992116208126,-0.0042521755614473,1,15.5,29.9
0.6,11.8056564305431,11.8781680410544,4.92566966758451,-0.00425149449675022,1,15.5,29.9
0.633333333333333,11.8061903094841,12.0422853163049,4.92141913148082,-0.00425053610369108,1,15.5,29.9
0.666666666666667,11.8067412841702,12.2062608684253,4.91716974684809,-0.00424938463273516,1,15.5,29.9
0.7,11.8073110244055,12.3700947304373,4.91292164564943,-0.00424810119865349,1,15.5,29.9
0.733333333333333,11.8079009772998,12.5337869392113,4.90867491573637,-0.00424672991306263,1,15.5,29.9
0.766666666666667,11.8085122101433,12.6973375348733,4.90442961361825,-0.00424530211812257,1,15.5,29.9
0.8,11.8091453358947,12.86074656039,4.90018577437749,-0.004243839240754,1,15.5,29.9
0.833333333333333,11.8098005210578,13.024014061189,4.89594341954959,-0.00424235482790269,1,15.5,29.9
0.866666666666667,11.8104775611195,13.1871400847397,4.89170256326751,-0.00424085628207926,1,15.5,29.9
0.9,11.8111759986467,13.3501246800763,4.88746321665208,-0.00423934661543512,1,15.5,29.9
0.933333333333333,11.811895255322,13.5129678972939,4.88322539040125,-0.00423782625082492,1,15.5,29.9
0.966666666666667,11.8126347516595,13.6756697870692,4.87898909573333,-0.00423629466792264,1,15.5,29.9
1,11.813393995485,13.8382304002586,4.87475434410258,-0.00423475163074993,1,15.5,29.9
1.03333333333333,11.8141726301621,14.0006497876158,4.87052114626506,-0.00423319783752163,1,15.5,29.9
1.06666666666667,11.8149704434459,14.1629279996409,4.8662895112529,-0.00423163501215829,1,15.5,29.9
1.1,11.8157873456201,14.3250650865514,4.8620594456516,-0.00423006560129924,1,15.5,29.9
1.13333333333333,11.8166233298961,14.4870610983419,4.8578309533577,-0.00422849229390199,1,15.5,29.9
1.16666666666667,11.817478428654,14.6489160848883,4.85360403580682,-0.00422691755088156,1,15.5,29.9
1.2,11.81835267657,14.810630096055,4.84937869254377,-0.00422534326304369,1,15.5,29.9
1.23333333333333,11.8192460872237,14.9722031817709,4.84515492195705,-0.00422377058672296,1,15.5,29.9
1.26666666666667,11.820158644838,15.1336353920583,4.84093272200171,-0.00422219995534245,1,15.5,29.9
1.3,11.8210897391552,15.2949267796304,4.83671203056894,-0.00422069143276804,1,15.5,29.9
1.33333333333333,11.8220361955676,15.4560774095136,4.83249275753925,-0.00421927302969127,1,15.5,29.9
1.36666666666667,11.8229931148599,15.6170873564828,4.82827492660309,-0.00421783093615424,1,15.5,29.9
1.4,11.8239562746114,15.7779566940604,4.82405857253248,-0.00421635407061061,1,15.5,29.9
1.43333333333333,11.8249211535657,15.9386854988141,4.81984374376869,-0.00421482876379642,1,15.5,29.9
1.46666666666667,11.8258849783719,16.0992738397018,4.81563052209935,-0.00421322166933447,1,15.5,29.9
1.5,11.8268469487708,16.259721775839,4.81141894596622,-0.00421157613312761,1,15.5,29.9
1.53333333333333,11.8278077099477,16.4200293583925,4.80720902279634,-0.00420992316988134,1,15.5,29.9
1.56666666666667,11.8287688452512,16.5801966328389,4.80300074334263,-0.00420827945371638,1,15.5,29.9
1.6,11.8297324457544,16.7402236411316,4.79879409239718,-0.00420665094544148,1,15.5,29.9
1.63333333333333,11.8307007778854,16.900110423514,4.79458905467378,-0.00420503772340908,1,15.5,29.9
1.66666666666667,11.8316760453238,17.0598570198998,4.79038561699336,-0.00420343768041853,1,15.5,29.9
1.7,11.8326602282095,17.2194634708591,4.786183768432,-0.00420184856136085,1,15.5,29.9
1.73333333333333,11.8336549798917,17.3789298183026,4.78198349970143,-0.00420026873056845,1,15.5,29.9
1.76666666666667,11.8346615654385,17.5382561059458,4.77778480246833,-0.00419869723309318,1,15.5,29.9
1.8,11.8356808328112,17.6974423796021,4.77358766891484,-0.00419713355349316,1,15.5,29.9
1.83333333333333,11.836713213486,17.8564886873154,4.76939209163082,-0.00419557728402165,1,15.5,29.9
1.86666666666667,11.8377587522379,18.0153950793191,4.76519806382198,-0.00419402780883793,1,15.5,29.9
1.9,11.8388171652492,18.174161607811,4.76100557974133,-0.00419248408065087,1,15.5,29.9
1.93333333333333,11.839887922497,18.3327883265538,4.75681463518667,-0.00419094455466329,1,15.5,29.9
1.96666666666667,11.840970346142,18.4912752903406,4.75262522787599,-0.00418940731067607,1,15.5,29.9
2,11.8420631534743,18.6496225578592,4.74843732223157,-0.0041879056444234,1,15.5,29.9
2.03333333333333,11.8431631875799,18.8078301998385,4.7442509048057,-0.00418641742586701,1,15.5,29.9
2.06666666666667,11.8442677285961,18.9658982850273,4.74006600767942,-0.004184897126283,1,15.5,29.9
2.1,11.8453751245143,19.1238268759539,4.73588265650869,-0.00418335117073099,1,15.5,29.9
2.13333333333333,11.8464846638653,19.2816160293577,4.73170086749701,-0.00418178901168087,1,15.5,29.9
2.16666666666667,11.8475957903678,19.4392658009964,4.72752062047593,-0.004180247021079,1,15.5,29.9
2.2,11.8487058937527,19.5967762600692,4.7233418864537,-0.00417873402223012,1,15.5,29.9
2.23333333333333,11.8498104719874,19.7541474885902,4.71916466526908,-0.00417722118461317,1,15.5,29.9
2.26666666666667,11.8509025706288,19.9113795853049,4.71498895831826,-0.0041757069508277,1,15.5,29.9
2.3,11.851969640893,20.0684726864773,4.710814855046,-0.00417410327225554,1,15.5,29.9
2.33333333333333,11.8529959457833,20.2254269490839,4.70664258727153,-0.00417226777446622,1,15.5,29.9
2.36666666666667,11.8539680069853,20.3822425121694,4.70247237949309,-0.0041702077784489,1,15.5,29.9
2.4,11.8548749400145,20.53891949185,4.69830431827532,-0.00416806121776325,1,15.5,29.9
2.43333333333333,11.8557121334282,20.695457955904,4.6941382280825,-0.00416609019282088,1,15.5,29.9
2.46666666666667,11.8564807863272,20.851857928792,4.68997379124187,-0.00416443684063506,1,15.5,29.9
2.5,11.8571860923136,21.0081194075118,4.68581069368673,-0.00416309755513122,1,15.5,29.9
2.53333333333333,11.8578355989572,21.1642423764008,4.681648720001,-0.00416197368573279,1,15.5,29.9
2.56666666666667,11.8584378665702,21.3202268187356,4.67748778222011,-0.00416093778088911,1,15.5,29.9
2.6,11.8590014551828,21.4760727243864,4.67332790085359,-0.00415988136652423,1,15.5,29.9
2.63333333333333,11.8595342095154,21.6317800938787,4.66916916531088,-0.00415873554271062,1,15.5,29.9
2.66666666666667,11.8600427872691,21.787348939768,4.66501169444113,-0.00415747086974338,1,15.5,29.9
2.7,11.8605323773063,21.9427792863158,4.66085560728035,-0.00415608716078175,1,15.5,29.9
2.73333333333333,11.8610065689958,22.0980711682537,4.65670100586669,-0.00415460141366619,1,15.5,29.9
2.76666666666667,11.8614673505059,22.2532246291228,4.65254796786242,-0.00415303800426603,1,15.5,29.9
2.8,11.8619140980335,22.4082397244742,4.64839670343579,-0.00415126442663105,1,15.5,29.9
2.83333333333333,11.8623399199375,22.5631165359121,4.64424747051645,-0.00414923291934421,1,15.5,29.9
2.86666666666667,11.8627325855742,22.7178551628077,4.64010044273426,-0.00414702778218601,1,15.5,29.9
2.9,11.8630772789906,22.8724557069705,4.63595568857885,-0.0041447541554076,1,15.5,29.9
2.93333333333333,11.8633610518162,23.0269182523596,4.63181308210257,-0.00414260647627973,1,15.5,29.9
2.96666666666667,11.8635759210677,23.1812428539424,4.62767235914825,-0.00414072295432621,1,15.5,29.9
3,11.8637187301969,23.3354295420827,4.62353322117209,-0.00413913797615528,1,15.5,29.9
3.03333333333333,11.863790137693,23.4894783310435,4.61939538547997,-0.00413783569211734,1,15.5,29.9
3.06666666666667,11.8637935451882,23.6433892273919,4.61525863533624,-0.0041367501437346,1,15.5,29.9
3.1,11.8637340912562,23.7971622370436,4.61112284707676,-0.0041357882594788,1,15.5,29.9
3.13333333333333,11.8636177770486,23.9507973702409,4.60698799109732,-0.0041348559794363,1,15.5,29.9
3.16666666666667,11.8634507476318,24.1042946443302,4.60285411454098,-0.00413387655633901,1,15.5,29.9
3.2,11.8632387296291,24.2576540846299,4.59872131595293,-0.00413279858805726,1,15.5,29.9
3.23333333333333,11.8629866175465,24.4108757238938,4.5945897198192,-0.00413159613372649,1,15.5,29.9
3.26666666666667,11.8626982013784,24.5639596009128,4.59045945533876,-0.00413026448043663,1,15.5,29.9
3.3,11.8623760301774,24.7169057711537,4.58633203980553,-0.00412741553323315,1,15.5,29.9
3.33333333333333,11.8620214055615,24.8697144278345,4.58221461200864,-0.00411742779688851,1,15.5,29.9
3.36666666666667,11.8616344935275,25.0223860837244,4.57811894160727,-0.00409567040137215,1,15.5,29.9
3.4,11.8612145338882,25.1749216849733,4.57405895020262,-0.00405999140465152,1,15.5,29.9
3.43333333333333,11.8607601168868,25.3273226340133,4.57004774447831,-0.00401120572430713,1,15.5,29.9
3.46666666666667,11.8602694890421,25.4795907217114,4.56609544068975,-0.00395230378856315,1,15.5,29.9
3.5,11.859740847911,25.6317280165335,4.5622086962272,-0.003886744462549,1,15.5,29.9
3.53333333333333,11.8591720226489,25.7837367563231,4.55839134418201,-0.00381735204519007,1,15.5,29.9
3.56666666666667,11.8585592581668,25.9356192599093,4.55464490365979,-0.0037464405222174,1,15.5,29.9
3.6,11.8578989962327,26.0873778598822,4.55096890409092,-0.00367599956887066,1,15.5,29.9
3.63333333333333,11.8571870977535,26.2390158561659,4.5476001445657,-0.00336875952521876,1,15.5,29.9
3.66666666666667,11.8564202428961,26.3905997592359,4.54894412524478,0.00134398067907693,1,15.5,29.9
3.7,11.8555940279178,26.542383661632,4.55998150087619,0.0110373756314068,1,15.5,29.9
3.73333333333333,11.8547032788255,26.6947120597583,4.58160737474884,0.0216258738726554,4,15.5,29.9
3.76666666666667,11.8537444813668,26.8479269826595,4.61297336739584,0.0313659926469958,4,15.5,29.9
3.8,11.8527158814792,27.0023296820758,4.65266623533325,0.0396928679374131,4,15.5,29.9
3.83333333333333,11.8516168657399,27.1581745820766,4.69930425325085,0.0466380179175996,4,15.5,29.9
3.86666666666667,11.8504474010127,27.3156706947608,4.75155323710365,0.0522489838527989,4,15.5,29.9
3.9,11.8492075987872,27.4749845087284,4.80820978699308,0.0566565498894311,4,15.5,29.9
3.93333333333333,11.8478974118384,27.6362453104975,4.86824426324302,0.0600344762499425,4,15.5,29.9
3.96666666666667,11.8465164571736,27.7995502288595,4.93074295378824,0.0624986905452198,4,15.5,29.9
4,11.8450639435026,27.9649675152842,4.99490083091704,0.0641578771288023,4,15.5,29.9
4.03333333333333,11.843538653896,28.1325418041241,5.06011225008272,0.0652114191656743,4,15.5,29.9
4.06666666666667,11.841938961113,28.3023000609576,5.12589717455005,0.0657849244673336,4,15.5,29.9
4.1,11.8402628836508,28.4742536873433,5.19180628858558,0.0659091140355264,4,15.5,29.9
4.13333333333333,11.8385081552557,28.648400544879,5.25747143255989,0.0656651439743143,4,15.5,29.9
4.16666666666667,11.8366735711048,28.8247269549484,5.3225804723946,0.0651090398347041,4,15.5,29.9
4.2,11.8347634403266,29.0032106081961,5.38690819294888,0.064327720554286,4,15.5,29.9
4.23333333333333,11.8327883483585,29.183822478231,5.45029342015875,0.0633852272098636,4,15.5,29.9
4.26666666666667,11.8307675288369,29.3665306521222,5.51270920598727,0.0624157858285228,4,15.5,29.9
4.3,11.828725838323,29.5513033491355,5.57417492029873,0.0614657143114572,4,15.5,29.9
4.33333333333333,11.8266876471784,29.7381097419607,5.63472660887387,0.0605516885751403,4,15.5,29.9
4.36666666666667,11.8246713491787,29.9269200071098,5.69438622653772,0.059659617663856,4,15.5,29.9
4.4,11.8226847365985,30.1177043050748,5.75313866915927,0.0587524426215511,4,15.5,29.9
4.43333333333333,11.8207268956053,30.3104318785416,5.81095475228767,0.0578160831284,4,15.5,29.9
4.46666666666667,11.8187907639147,30.5050704553831,5.86775274403149,0.0567979917438111,4,15.5,29.9
4.5,11.8168627873474,30.7015829725056,5.92336152493354,0.0556087809020545,4,15.5,29.9
4.53333333333333,11.8149235175292,30.8999283586346,5.97772593344003,0.0543644085064869,4,15.5,29.9
4.56666666666667,11.812952709893,31.1000651545161,6.03086649945805,0.0531405660180226,4,15.5,29.9
4.6,11.8109309220655,31.3019531568718,6.08283418720772,0.0519676877496744,4,15.5,29.9
4.63333333333333,11.8088384434283,31.5055542727708,6.13370435507335,0.050870167865626,4,15.5,29.9
4.66666666666667,11.8066591252546,31.7108329544926,6.18354683753047,0.0498424824571151,4,15.5,29.9
4.7,11.8043835337407,31.9177558065492,6.23241391928551,0.0488670817550494,4,15.5,29.9
4.73333333333333,11.8020080514698,32.1262882805437,6.28011642857109,0.0477025092855712,4,15.5,29.9
4.76666666666667,11.7995332835189,32.3363845445406,6.32624519973386,0.0461287711627696,4,15.5,29.9
4.8,11.796962634199,32.5479871773115,6.3705271731915,0.0442819734576476,4,15.5,29.9
4.83333333333333,11.7943011326537,32.7610319856884,6.4128217005259,0.0422945273343931,4,15.5,29.9
4.86666666666667,11.7915545334685,32.9754518037613,6.45308447369399,0.0402627731680969,4,15.5,29.9
4.9,11.7887272253815,33.1913044962871,6.5021369313335,0.0490524576395046,4,15.5,29.9
4.93333333333333,11.7858186915562,33.4090321109024,6.56416317898939,0.0620262476558961,4,15.5,29.9
4.96666666666667,11.7828288445444,33.6289420411619,6.63226247844664,0.0680992994572476,4,15.5,29.9
5,11.7797583585411,33.8511637047673,6.70243251140669,0.0701700329600525,4,15.5,29.9
5.03333333333333,11.7766069966747,34.0757256754021,6.77246400952022,0.0700314981135257,4,15.5,29.9
5.06666666666667,11.7733698115091,34.3026005659916,6.84112455059975,0.0686605410795327,4,15.5,29.9
5.1,11.7700349190139,34.531731716545,6.90786003364054,0.0667354830407865,4,15.5,29.9
5.13333333333333,11.766583760945,34.7630514589023,6.97252689766777,0.0646668640272283,4,15.5,29.9
5.16666666666667,11.7629888874629,34.9964911147734,7.03519328992016,0.062666392252388,4,15.5,29.9
5.2,11.7592207470148,35.2319860619639,7.09602389156298,0.0608306016428273,4,15.5,29.9
5.23333333333333,11.755255055065,35.4694778420956,7.1552141898881,0.0591902983251211,4,15.5,29.9
5.26666666666667,11.7510786418697,35.7089147041196,7.21295889370739,0.0577447038192842,4,15.5,29.9
5.3,11.7466879573008,35.9502512961996,7.26943666736365,0.0564777736562645,4,15.5,29.9
5.33333333333333,11.7420881705347,36.1934480163851,7.32480387494382,0.0553672075801712,4,15.5,29.9
5.36666666666667,11.737292504083,36.4384702456727,7.37919264634411,0.0543887714002897,4,15.5,29.9
5.4,11.7323292153724,36.6852876638436,7.43270847401656,0.0535158276724443,4,15.5,29.9
5.43333333333333,11.727242247953,36.9338733989892,7.48543171817154,0.0527232441549792,4,15.5,29.9
5.46666666666667,11.7220800693142,37.1842030710502,7.53742494289395,0.0519932247224135,4,15.5,29.9
5.5,11.7168846330758,37.4362539816431,7.58872557993059,0.0513006370366398,4,15.5,29.9
5.53333333333333,11.7116890099935,37.690003416922,7.63931174614677,0.0505861662161786,4,15.5,29.9
5.56666666666667,11.7065125036551,37.9454277936687,7.68918146588033,0.0498697197335618,4,15.5,29.9
5.6,11.7013611123502,38.2025040833165,7.73839050876691,0.0492090428865772,4,15.5,29.9
5.63333333333333,11.6962324393105,38.4612115730492,7.78701824803889,0.0486277392719865,4,15.5,29.9
5.66666666666667,11.691119830346,38.7215317128682,7.8351167270704,0.0480984790315038,4,15.5,29.9
5.7,11.6860149041804,38.9834468461835,7.88268804625641,0.0475713191860105,4,15.5,29.9
5.73333333333333,11.6809089065741,39.2469390272695,7.92972122347952,0.0470331772231134,4,15.5,29.9
