Time,x_ego,y_ego,velocity,acceleration,action,x_ped,y_ped
0,11.8,15.9,7,0,1,15.5,29.9
0.0333333333333333,11.7999991556326,16.133270379394,6.9961557798823,-0.00384422011770269,1,15.4502170138889,29.9
0.0666666666666667,11.7999938724217,16.3664065988009,6.99196947498367,-0.00418630489862348,1,15.4008680555556,29.9
0.1,11.799981290911,16.5994007551861,6.98769500047537,-0.00427447450830609,1,15.351953125,29.9
0.133333333333333,11.799959928311,16.8322537848708,6.98349768237817,-0.0041973180971997,1,15.3034722222222,29.9
0.166666666666667,11.7999292675115,17.064967878987,6.9793558991536,-0.00414178322456493,1,15.2554253472222,29.9
0.2,11.7998893888109,17.2975446157421,6.97525415530547,-0.00410174384813455,1,15.2078125,29.9
0.233333333333333,11.7998406878021,17.5299851341457,6.97118134647772,-0.00407280882774508,1,15.1606336805556,29.9
0.266666666666667,11.7997836887301,17.76229025851,6.96712951555286,-0.00405183092486805,1,15.1138888888889,29.9
0.3,11.7997189398368,17.9944605876619,6.9630929607827,-0.00403655477015707,1,15.067578125,29.9
0.333333333333333,11.7996469661865,18.2264965588621,6.95906759649829,-0.00402536428440392,1,15.0217013888889,29.9
0.366666666666667,11.7995682542707,18.4583984935997,6.95505049501719,-0.00401710148110634,1,14.9762586805556,29.9
0.4,11.7994832480002,18.6901666304015,6.95103955844974,-0.00401093656744589,1,14.93125,29.9
0.433333333333333,11.7993923439172,18.9218011483377,6.94703328355868,-0.00400627489105787,1,14.8866753472222,29.9
0.466666666666667,11.7992958815275,19.1533021838602,6.94303059324841,-0.00400269031027456,1,14.8425347222222,29.9
0.5,11.7991941305593,19.3846698428662,6.93903071576646,-0.00399987748194697,1,14.798828125,29.9
0.533333333333333,11.7990872798548,19.6159042093404,6.93503309808947,-0.00399761767699491,1,14.7555555555556,29.9
0.566666666666667,11.7989754326791,19.8470053515472,6.93103734382374,-0.00399575426572962,1,14.7127170138889,29.9
0.6,11.7988586113389,20.0779733264704,6.92704316870383,-0.00399417511991107,1,14.6703125,29.9
0.633333333333333,11.7987367712691,20.3088081829978,6.92305036873156,-0.00399279997226998,1,14.6283420138889,29.9
0.666666666666667,11.7986098222063,20.5395099642075,6.91905879739163,-0.00399157133992745,1,14.5868055555556,29.9
0.7,11.7984776767815,20.7700205778326,6.91158054744633,-0.00747824994530255,1,14.545703125,29.9
0.733333333333333,11.7983403792822,20.9999938257434,6.88681738911834,-0.0247631583279873,3,14.5050347222222,29.9
0.766666666666667,11.798198977104,21.2287954508534,6.84128382547471,-0.045533563643632,3,14.4648003472222,29.9
0.8,11.798057212012,21.4559642312911,6.78884703022627,-0.0524367952484335,3,14.425,29.9
0.833333333333333,11.7979181159403,21.681154552974,6.72257668131852,-0.0662703489077563,3,14.3856336805556,29.9
0.866666666666667,11.797783458582,21.9039344036361,6.64421920864334,-0.0783574726751777,3,14.3467013888889,29.9
0.9,11.7976540561631,22.123929253905,6.55547730783592,-0.0887419008074222,3,14.308203125,29.9
0.933333333333333,11.7975300897069,22.34085111693,6.45984095767621,-0.0956363501597108,3,14.2701388888889,29.9
0.966666666666667,11.7974113737457,22.5544701967793,6.35731180605591,-0.102529151620296,3,14.2325086805556,29.9
1,11.7972975871049,22.7644986177408,6.24440352017984,-0.11290828587607,3,14.1953125,29.9
1.03333333333333,11.7971883537477,22.9706198588262,6.1228835695603,-0.121519950619542,3,14.1585503472222,29.9
1.06666666666667,11.7970832908344,23.1724887526267,5.98926562279946,-0.133617946760838,3,14.1222222222222,29.9
1.1,11.7969820172434,23.3697598291195,5.84701751464571,-0.142248108153755,3,14.086328125,29.9
1.13333333333333,11.7968841241758,23.5621745083412,5.69788454256001,-0.149132972085698,3,14.0508680555556,29.9
1.16666666666667,11.7967892110154,23.7495320241455,5.54358992316531,-0.154294619394701,3,14.0158420138889,29.9
1.2,11.7966969411006,23.9316312830179,5.38239057561924,-0.161199347546063,3,13.98125,29.9
1.23333333333333,11.7966070683266,24.108271225274,5.21603138062895,-0.166359194990293,3,13.9470920138889,29.9
1.26666666666667,11.7965194442098,24.2792798861678,5.04451311137023,-0.171518269258722,3,13.9133680555556,29.9
1.3,11.7964340448118,24.4444853250915,4.86783651763809,-0.176676593732139,3,13.9133680555556,29.9
1.33333333333333,11.7963509981173,24.603657854249,4.68253628435056,-0.185300233287531,3,13.9133680555556,29.9
1.36666666666667,11.796270520652,24.7565968776627,4.49382342720146,-0.188712857149102,3,13.9133680555556,29.9
1.4,11.7961928576687,24.9031873164332,4.30159192572907,-0.192231501472385,3,13.9133680555556,29.9
1.43333333333333,11.796118307473,25.0432818443405,4.10407527408397,-0.197516651645101,3,13.9133680555556,29.9
1.46666666666667,11.7960471813258,25.1767051196108,3.90132110289664,-0.202754171187335,3,13.9133680555556,29.9
1.5,11.7959797710101,25.3032540877171,3.69161991881532,-0.209701184081318,3,13.9133680555556,29.9
1.53333333333333,11.7959163268781,25.4226979762078,3.47501868924481,-0.216601229570507,3,13.9133680555556,29.9
1.56666666666667,11.7958570033493,25.5348645027737,3.25498010275168,-0.220038586493134,3,13.9133680555556,29.9
1.6,11.7958018470419,25.6396683794275,3.03326124363405,-0.221718859117624,3,13.9133680555556,29.9
1.63333333333333,11.7957508249265,25.7370824597151,2.81159353996314,-0.221667703670918,3,13.9133680555556,29.9
1.66666666666667,11.7957038587074,25.8271085605494,2.58998338376412,-0.221610156199015,3,13.9133680555556,29.9
1.7,11.7956608605783,25.9097486779941,2.36843515455198,-0.221548229212142,3,13.9133680555556,29.9
1.73333333333333,11.795621752487,25.9850051658227,2.14700350755406,-0.221431646997922,3,13.9133680555556,29.9
1.76666666666667,11.795586471394,26.0528973717758,1.92694671309199,-0.220056794462067,3,13.9133680555556,29.9
1.8,11.7955549500901,26.1135015632905,1.70985107086868,-0.217095642223313,3,13.9133680555556,29.9
1.83333333333333,11.7955271251653,26.1669254335224,1.49617285615881,-0.213678214709867,3,13.9133680555556,29.9
1.86666666666667,11.7955029404837,26.2132868274303,1.28613040435776,-0.210042451801048,3,13.9133680555556,29.9
1.9,11.7954823424378,26.2527092215988,1.07984504800689,-0.206285356350877,3,13.9133680555556,29.9
1.93333333333333,11.7954652757808,26.2853199576089,0.877482036785859,-0.202363011221026,3,13.9133680555556,29.9
1.96666666666667,11.7954516787555,26.3112542635127,0.679265330614645,-0.198216706171215,3,13.9133680555556,29.9
2,11.7954414850533,26.33064992433,0.485170620418039,-0.194094710196605,3,13.9133680555556,29.9
2.03333333333333,11.7954346249247,26.3436459746516,0.295305024332349,-0.18986559608569,3,13.9133680555556,29.9
2.06666666666667,11.7954310258094,26.3503834843102,0.109674029067903,-0.185630995264446,3,13.9133680555556,29.9
2.1,11.7954303165809,26.3515724720704,0.0113670473781004,-0.0983069816898027,3,13.9133680555556,29.9
2.13333333333333,11.7954303048396,26.3513997401909,0.00617218056191174,-0.00519486681618863,5,13.9133680555556,29.9
2.16666666666667,11.7954302772117,26.351227008303,0.00505401711921558,-0.00111816344269615,5,13.9133680555556,29.9
2.2,11.7954302772117,26.351227008303,0.00732889641117368,0.00227487929195809,5,13.9133680555556,29.9
2.23333333333333,11.7954302772117,26.351227008303,0.00998125276268644,0.00265235635151276,5,13.9133680555556,29.9
2.26666666666667,11.7954302772117,26.351227008303,0.0127549231610919,0.0027736703984055,5,13.9133680555556,29.9
2.3,11.7954302772117,26.351227008303,0.0153716630552838,0.00261673989419186,5,13.9133680555556,29.9
2.33333333333333,11.7954302772117,26.351227008303,0.0175650997862417,0.00219343673095792,5,13.9133680555556,29.9
2.36666666666667,11.7954302772117,26.351227008303,0.0191086575268084,0.00154355774056673,5,13.9133680555556,29.9
2.4,11.7954302772117,26.351227008303,0.019835969064605,0.000727311537796507,5,13.9133680555556,29.9
2.43333333333333,11.7954302772117,26.351227008303,0.0196531382170387,-0.000182830847566255,5,13.9133680555556,29.9
2.46666666666667,11.7954302772117,26.351227008303,0.018542975545023,-0.00111016267201573,5,13.9133680555556,29.9
2.5,11.7954302772117,26.351227008303,0.0165619574848638,-0.00198101806015921,5,13.9133680555556,29.9
2.53333333333333,11.7954302772117,26.351227008303,0.0138311296760566,-0.00273082780880713,5,13.9133680555556,29.9
2.56666666666667,11.7954302772117,26.351227008303,0.0105224792993172,-0.00330865037673939,5,13.9133680555556,29.9
2.6,11.7954302772117,26.351227008303,0.00684244250373053,-0.00368003679558672,5,13.9133680555556,29.9
2.63333333333333,11.7954302772117,26.351227008303,0.00301420650844846,-0.00382823599528207,5,13.9133680555556,29.9
2.66666666666667,11.7954302772117,26.351227008303,0.00073966498752829,-0.00227454152092017,5,13.9133680555556,29.9
2.7,11.7954302772117,26.351227008303,0.00421298126529404,0.00347331627776575,5,13.9133680555556,29.9
2.73333333333333,11.7954302772117,26.351227008303,0.0072290387361975,0.00301605747090346,5,13.9133680555556,29.9
2.76666666666667,11.7954302772117,26.351227008303,0.00965041519538184,0.00242137645918434,5,13.9133680555556,29.9
2.8,11.7954302772117,26.351227008303,0.0113850905522781,0.00173467535689631,5,13.9133680555556,29.9
2.83333333333333,11.7954302772117,26.351227008303,0.0123888521060989,0.00100376155382076,5,13.9133680555556,29.9
2.86666666666667,11.7954302772117,26.351227008303,0.0126642152923869,0.000275363186287942,5,13.9133680555556,29.9
2.9,11.7954302772117,26.351227008303,0.012256310929762,-0.000407904362624809,5,13.9133680555556,29.9
2.93333333333333,11.7954302772117,26.351227008303,0.0112463491846315,-0.0010099617451305,5,13.9133680555556,29.9
2.96666666666667,11.7954302772117,26.351227008303,0.00974336603900597,-0.00150298314562557,5,13.9133680555556,29.9
3,11.7954302772117,26.351227008303,0.00787499210558754,-0.00186837393341843,5,13.9133680555556,29.9
3.03333333333333,11.7954302772117,26.351227008303,0.00577796225174867,-0.00209702985383887,5,13.9133680555556,29.9
3.06666666666667,11.7954302772117,26.351227008303,0.0035890166873031,-0.00218894556444557,5,13.9133680555556,29.9
3.1,11.7954302772117,26.351227008303,0.00143674085645898,-0.00215227583084412,5,13.9133680555556,29.9
3.13333333333333,11.7954302772117,26.351227008303,0.000565235554057993,-0.00087150530240099,5,13.9133680555556,29.9
3.16666666666667,11.7954302772117,26.351227008303,0.00232339917674717,0.00175816362268918,5,13.9133680555556,29.9
3.2,11.7954302772117,26.351227008303,0.00376773183906732,0.00144433266232015,5,13.9133680555556,29.9
3.23333333333333,11.7954302772117,26.351227008303,0.0048532981527079,0.00108556631364058,5,13.9133680555556,29.9
3.26666666666667,11.7954302772117,26.351227008303,0.00556014787732642,0.00070684972461852,5,13.9133680555556,29.9
3.3,11.7954302772117,26.351227008303,0.00589173330419551,0.000331585426869085,5,13.9133680555556,29.9
3.33333333333333,11.7954302772117,26.351227008303,0.005872111300822,-1.96220033735024e-05,5,13.9133680555556,29.9
3.36666666666667,11.7954302772117,26.351227008303,0.00554224303268317,-0.000329868268138835,5,13.9133680555556,29.9
3.4,11.7954302772117,26.351227008303,0.00495572236724236,-0.000586520665440806,5,13.9133680555556,29.9
3.43333333333333,11.7954302772117,26.351227008303,0.00417425876339561,-0.00078146360384675,5,13.9133680555556,29.9
3.46666666666667,11.7954302772117,26.351227008303,0.00326321544887775,-0.000911043314517858,5,13.9133680555556,29.9
3.5,11.7954302772117,26.351227008303,0.00228746309017656,-0.000975752358701198,5,13.9133680555556,29.9
3.53333333333333,11.7954302772117,26.351227008303,0.00130775758941669,-0.000979705500759871,5,13.9133680555556,29.9
3.56666666666667,11.7954302772117,26.351227008303,0.000377792793029363,-0.000929964796387322,5,13.9133680555556,29.9
3.6,11.7954302772117,26.351227008303,0.000457980781980553,8.01879889511898e-05,5,13.9133680555556,29.9
3.63333333333333,11.7954302772117,26.351227008303,0.00116573764840153,0.000707756866420982,5,13.9133680555556,29.9
3.66666666666667,11.7954302772117,26.351227008303,0.00172287805692379,0.000557140408522254,5,13.9133680555556,29.9
3.7,11.7954302772117,26.351227008303,0.00211791051983498,0.000395032462911196,5,13.9133680555556,29.9
3.73333333333333,11.7954302772117,26.351227008303,0.00234971361193878,0.000231803092103791,5,13.9133680555556,29.9
3.76666666666667,11.7954302772117,26.351227008303,0.00242629874994453,7.65851380057541e-05,5,13.9133680555556,29.9
3.8,11.7954302772117,26.351227008303,0.002363209394798,-6.3089355146526e-05,5,13.9133680555556,29.9
3.83333333333333,11.7954302772117,26.351227008303,0.00218169594374796,-0.00018151345105004,5,13.9133680555556,29.9
3.86666666666667,11.7954302772117,26.351227008303,0.00190680058559411,-0.000274895358153852,5,13.9133680555556,29.9
3.9,11.7954302772117,26.351227008303,0.00156547407575865,-0.000341326509835457,5,13.9133680555556,29.9
3.93333333333333,11.7954302772117,26.351227008303,0.00118482848042623,-0.00038064559533242,5,13.9133680555556,29.9
3.96666666666667,11.7954302772117,26.351227008303,0.000790608274180148,-0.000394220206246087,5,13.9133680555556,29.9
4,11.7954302772117,26.351227008303,0.000405938560407874,-0.000384669713772274,5,13.9133680555556,29.9
4.03333333333333,11.7954302772117,26.351227008303,5.03852925704948e-05,-0.000355553267837379,5,13.9133680555556,29.9
4.06666666666667,11.7954302772117,26.351227008303,0.000260660334423738,0.000210275041853244,5,13.9133680555556,29.9
4.1,11.7954302772117,26.351227008303,0.000516281495661237,0.000255621161237499,5,13.9133680555556,29.9
4.13333333333333,11.7954302772117,26.351227008303,0.000710044621392738,0.000193763125731501,5,13.9133680555556,29.9
4.16666666666667,11.7954302772117,26.351227008303,0.000839756119566821,0.000129711498174083,5,13.9133680555556,29.9
4.2,11.7954302772117,26.351227008303,0.000907014730953482,6.72586113866608e-05,5,13.9133680555556,29.9
4.23333333333333,11.7954302772117,26.351227008303,0.000916612503874201,9.59777292071883e-06,5,13.9133680555556,29.9
4.26666666666667,11.7954302772117,26.351227008303,0.000875838785312516,-4.0773718561685e-05,5,13.9133680555556,29.9
4.3,11.7954302772117,26.351227008303,0.00079373969796279,-8.20990873497253e-05,5,13.9133680555556,29.9
4.33333333333333,11.7954302772117,26.351227008303,0.000680380887628518,-0.000113358810334272,5,13.9133680555556,29.9
4.36666666666667,11.7954302772117,26.351227008303,0.000546154541703282,-0.000134226345925236,5,13.9133680555556,29.9
4.4,11.7954302772117,26.351227008303,0.000401163486346166,-0.000144991055357116,5,13.9133680555556,29.9
4.43333333333333,11.7954302772117,26.351227008303,0.000254706241101082,-0.000146457245245084,5,13.9133680555556,29.9
4.46666666666667,11.7954302772117,26.351227008303,0.000114877865822232,-0.00013982837527885,5,13.9133680555556,29.9
4.5,11.7954302772117,26.351227008303,1.17071853790897e-05,-0.000103170680443142,5,13.9133680555556,29.9
4.53333333333333,11.7954302772117,26.351227008303,0.000120071747911909,0.000108364562532819,5,13.9133680555556,29.9
4.56666666666667,11.7954302772117,26.351227008303,0.000206920287526822,8.68485396149128e-05,5,13.9133680555556,29.9
4.6,11.7954302772117,26.351227008303,0.000270584198388326,6.36639108615039e-05,5,13.9133680555556,29.9
4.63333333333333,11.7954302772117,26.351227008303,0.000310885047857534,4.03008494692082e-05,5,13.9133680555556,29.9
4.66666666666667,11.7954302772117,26.351227008303,0.000328934957546633,1.80499096890992e-05,5,13.9133680555556,29.9
4.7,11.7954302772117,26.351227008303,0.000326894109285803,-2.04084826083009e-06,5,13.9133680555556,29.9
4.73333333333333,11.7954302772117,26.351227008303,0.000307704918826017,-1.91891904597858e-05,5,13.9133680555556,29.9
4.76666666666667,11.7954302772117,26.351227008303,0.000274820934486751,-3.28839843392669e-05,5,13.9133680555556,29.9
4.8,11.7954302772117,26.351227008303,0.000133333798142381,-0.00014148713634437,5,13.9133680555556,29.9
4.83333333333333,11.7954299579757,26.3518351147626,0.0344258196423576,0.0342924858442153,4,13.9133680555556,29.9
4.86666666666667,11.7954290122397,26.3536336608537,0.0734153646082896,0.038989544965932,4,13.9133680555556,29.9
4.9,11.7954273979384,26.3566655660317,0.108399516450862,0.0349841518425724,4,13.9133680555556,29.9
4.93333333333333,11.7954250921409,26.3608804266865,0.14437904435646,0.035979527905598,4,13.9133680555556,29.9
4.96666666666667,11.7954218984915,26.3664824756956,0.191613883057839,0.0472348387013789,4,13.9133680555556,29.9
5,11.7954175636953,26.3736711783179,0.239559633688847,0.0479457506310084,4,13.9133680555556,29.9
5.03333333333333,11.7954118603227,26.3824393182184,0.28638792000661,0.0468282863177631,4,13.9133680555556,29.9
5.06666666666667,11.7954044794183,26.3927501714042,0.332133776365248,0.0457458563586373,4,13.9133680555556,29.9
5.1,11.7953950001941,26.4045683518119,0.376834460726477,0.0447006843612291,4,13.9133680555556,29.9
5.13333333333333,11.7953828494946,26.4178596139929,0.420521163987058,0.0436867032605812,4,13.9133680555556,29.9
5.16666666666667,11.7953672333218,26.4325906692346,0.463220599550928,0.0426994355638706,4,13.9133680555556,29.9
5.2,11.795347057709,26.4487289117643,0.504943468742636,0.0417228691917071,4,13.9133680555556,29.9
5.23333333333333,11.7953208773268,26.4662416491664,0.545680555837073,0.0407370870944371,4,13.9133680555556,29.9
5.26666666666667,11.7952868639813,26.4850959614344,0.585430272493214,0.0397497166561409,4,13.9133680555556,29.9
5.3,11.7952428417577,26.5052589828362,0.624198366633066,0.0387680941398519,4,13.9133680555556,29.9
5.33333333333333,11.7951865264774,26.5266981135176,0.661995672851787,0.0377973062187217,4,13.9133680555556,29.9
5.36666666666667,11.7951156547407,26.5493811779974,0.69883859012827,0.0368429172764825,4,13.9133680555556,29.9
5.4,11.7950280715679,26.5732770066563,0.734776003687548,0.0359374135592782,4,13.9133680555556,29.9
5.43333333333333,11.7949218184489,26.5983564498291,0.769870955315551,0.0350949516280035,4,13.9133680555556,29.9
5.46666666666667,11.794795249933,26.6245922775818,0.804174680979705,0.0343037256641532,4,13.9133680555556,29.9
5.5,11.7946472761355,26.6519588164811,0.837728868680122,0.0335541877004175,4,13.9133680555556,29.9
5.53333333333333,11.7944776086317,26.6804316751446,0.870568136307868,0.0328392676277459,4,13.9133680555556,29.9
5.56666666666667,11.7942868584674,26.7099875388423,0.902721860904205,0.0321537245963374,4,13.9133680555556,29.9
5.6,11.7940765187595,26.7406039141912,0.934203580289993,0.0314817193857875,4,13.9133680555556,29.9
5.63333333333333,11.7938487712993,26.7722579878348,0.964982853422391,0.030779273132398,4,13.9133680555556,29.9
5.66666666666667,11.7936063314418,26.8049259081491,0.99503456771957,0.0300517142971795,4,13.9133680555556,29.9
5.7,11.7933521438878,26.8385832431245,1.024347898964,0.0293133312444315,4,13.9133680555556,29.9
5.73333333333333,11.7930891983344,26.8732053400381,1.05292042422891,0.0285725252649125,4,13.9133680555556,29.9
5.76666666666667,11.7928203883171,26.9087675957165,1.08075775974363,0.0278373355147141,4,13.9133680555556,29.9
5.8,11.7925483703339,26.9452476375019,1.10807801762805,0.0273202578844225,4,13.9133680555556,29.9
5.83333333333333,11.7922754080262,26.9826405366594,1.13569374705906,0.0276157294310064,4,13.9133680555556,29.9
5.86666666666667,11.7920032230629,27.0209747194606,1.16477162464395,0.0290778775848892,4,13.9133680555556,29.9
5.9,11.7917328678948,27.060321970113,1.19672442110931,0.031952796465367,4,13.9133680555556,29.9
5.93333333333333,11.7914646215762,27.1008031096467,1.23303979719324,0.0363153760839301,4,13.9133680555556,29.9
5.96666666666667,11.7911979204838,27.1425854065393,1.27496618592926,0.0419263887360131,4,13.9133680555556,29.9
6,11.790931331999,27.1858705851385,1.32331271649811,0.0483465305688524,4,13.9133680555556,29.9
6.03333333333333,11.7906625595654,27.2308814554677,1.37856981216605,0.055257095667945,4,13.9133680555556,29.9
6.06666666666667,11.7903884699787,27.2778533146889,1.4409972702307,0.0624274580646458,4,13.9133680555556,29.9
6.1,11.7901051573741,27.3270261738893,1.5106104483783,0.0696131781475964,4,13.9133680555556,29.9
