Time,x_ego,y_ego,velocity,acceleration,action,x_ped,y_ped
0,11.8,15.9,7,0,1,15.5,29.9
0.0333333333333333,11.8,16.1332703793943,6.99615577953002,-0.00384422046998356,1,15.3694444444444,29.9
0.0666666666666667,11.8,16.3664065988113,6.99196947109348,-0.00418630843653833,1,15.2444444444444,29.9
0.1,11.8,16.5994007552791,6.98769498718995,-0.00427448390352669,1,15.125,29.9
0.133333333333333,11.8,16.8322537852842,6.9834976545359,-0.00419733265404787,1,15.0111111111111,29.9
0.166666666666667,11.8,17.0649678802301,6.97935585456763,-0.00414179996826913,1,14.9027777777778,29.9
0.2,11.8,17.2975446186632,6.97525409491249,-0.00410175965514537,1,14.8,29.9
0.233333333333333,11.8,17.5299851399444,6.97118127319767,-0.00407282171482137,1,14.7027777777778,29.9
0.266666666666667,11.8,17.7622902687052,6.96712943294736,-0.00405184025031069,1,14.6111111111111,29.9
0.3,11.8,17.9944606040335,6.96309287213007,-0.00403656081728965,1,14.525,29.9
0.333333333333333,11.8,18.2264965833863,6.95906750439986,-0.00402536773020401,1,14.4444444444444,29.9
0.366666666666667,11.8,18.4583985283897,6.95505040137947,-0.00401710302039238,1,14.3694444444444,29.9
0.4,11.8,18.6901666776599,6.95103946463339,-0.00401093674607722,1,14.3,29.9
0.433333333333333,11.8,18.9218012103233,6.94703319054231,-0.00400627409108711,1,14.2361111111111,29.9
0.466666666666667,11.8,19.1533022628712,6.94303050173604,-0.00400268880626342,1,14.1777777777778,29.9
0.5,11.8,19.3846699412377,6.93903062623031,-0.00399987550573222,1,14.125,29.9
0.533333333333333,11.8,19.6159043294559,6.93503301077307,-0.00399761545723631,1,14.0777777777778,29.9
0.566666666666667,11.8,19.8470054958598,6.93103725873891,-0.00399575203416092,1,14.0361111111111,29.9
0.6,11.8,20.0779734975296,6.92704308564579,-0.003994173093127,1,14,29.9
0.633333333333333,11.8,20.3088083834769,6.92305028732138,-0.00399279832440236,1,13.9694444444444,29.9
0.666666666666667,11.8,20.539510196927,6.91905871714157,-0.00399157017981544,1,13.9444444444444,29.9
0.7,11.8,20.7700789769551,6.91506826976362,-0.00399044737794529,1,13.925,29.9
0.733333333333333,11.8,21.0005147596581,6.91107886949752,-0.00398940026610006,1,13.9111111111111,29.9
0.766666666666667,11.8,21.2308175789948,6.90709046198042,-0.00398840751710594,1,13.9027777777778,29.9
0.8,11.8,21.460987467388,6.90310300819923,-0.00398745378118903,1,13.9,29.9
0.833333333333333,11.7999951231757,21.6910240928268,6.89909469336003,-0.0040083148392025,1,13.9,29.9
0.866666666666667,11.7999645739693,21.9208406521107,6.88989928954351,-0.0091954038165154,1,13.9,29.9
0.9,11.7998917547484,22.1502642474204,6.87551756496442,-0.0143817245790956,1,13.9,29.9
0.933333333333333,11.7997680565541,22.3790355319661,6.85076219048697,-0.0247553744774454,3,13.9,29.9
0.966666666666667,11.7995906061574,22.6065780194355,6.80179242040271,-0.0489697700842617,3,13.9,29.9
1,11.7993602063178,22.8323153147128,6.74245394114288,-0.0593384792598286,3,13.9,29.9
1.03333333333333,11.7990797311424,23.0558727521925,6.67100496441807,-0.0714489767248097,3,13.9,29.9
1.06666666666667,11.7987530851757,23.276904445633,6.59091387230186,-0.0800910921162066,3,13.9,29.9
1.1,11.7983847107578,23.4949494072883,6.49180641045112,-0.0991074618507444,3,13.9,29.9
1.13333333333333,11.7979793073573,23.7094893370611,6.38061782119704,-0.111188589254083,3,13.9,29.9
1.16666666666667,11.7975416561699,23.9200924958508,6.25560665599887,-0.12501116519817,3,13.9,29.9
1.2,11.7970766877313,24.1262694614937,6.11505336513365,-0.140553290865213,3,13.9,29.9
1.23333333333333,11.7965892654532,24.3276173716251,5.96587084349046,-0.149182521643193,3,13.9,29.9
1.26666666666667,11.796084019196,24.5238486094769,5.8080608094843,-0.157810034006164,3,13.9,29.9
1.3,11.7955654214537,24.7146182122073,5.63818052025218,-0.169880289232117,3,13.9,29.9
1.33333333333333,11.7950374875853,24.8996390461951,5.46314190932011,-0.175038610932073,3,13.9,29.9
1.36666666666667,11.7945034737694,25.078796601525,5.2863900043504,-0.176751904969707,3,13.9,29.9
1.4,11.7939660523033,25.2520054582389,5.10622474329404,-0.180165261056362,3,13.9,29.9
1.43333333333333,11.7934273943307,25.4191802133175,4.92434676646766,-0.181877976826375,3,13.9,29.9
1.46666666666667,11.7928892845391,25.5802351107012,4.73903411118047,-0.185312655287196,3,13.9,29.9
1.5,11.7923533369241,25.7350560631354,4.55030894700381,-0.188725164176661,3,13.9,29.9
1.53333333333333,11.7918209741756,25.8835867590971,4.36161596377728,-0.188692983226528,3,13.9,29.9
1.56666666666667,11.7912937120005,26.0257695925196,4.16940822273946,-0.192207741037817,3,13.9,29.9
1.6,11.7907736410813,26.161399669478,3.96845547325029,-0.200952749489175,3,13.9,29.9
1.63333333333333,11.7902634500597,26.2901575964702,3.757082083218,-0.21137339003229,3,13.9,29.9
1.66666666666667,11.789766239304,26.4116966025514,3.53532217790846,-0.221759905309537,3,13.9,29.9
1.7,11.7892849186747,26.5258438350394,3.31357720072299,-0.221744977185466,3,13.9,29.9
1.73333333333333,11.7888220830424,26.6326000820297,3.09186438194711,-0.221712818775879,3,13.9,29.9
1.76666666666667,11.7883803608789,26.7319666211242,2.8701957443663,-0.221668637580816,3,13.9,29.9
1.8,11.7879622953998,26.823945073449,2.64857961826591,-0.221616126100388,3,13.9,29.9
1.83333333333333,11.7875702486855,26.9085372989505,2.42702173110557,-0.221557887160337,3,13.8991319444444,29.9
1.86666666666667,11.7872063177895,26.9857453441239,2.20552570773641,-0.221496023369163,3,13.8965277777778,29.9
1.9,11.7868721982218,27.0555787638677,1.98485814318017,-0.220667564556243,3,13.8921875,29.9
1.93333333333333,11.7865690354388,27.1180979710379,1.76687452040452,-0.217983622775652,3,13.8861111111111,29.9
1.96666666666667,11.786297516142,27.1734062447897,1.55224859035823,-0.214625930046286,3,13.8782986111111,29.9
2,11.7860580362011,27.2216197909169,1.34121718708412,-0.211031403274106,3,13.86875,29.9
2.03333333333333,11.7858507817675,27.2628610534817,1.13392232928689,-0.207294857797236,3,13.8574652777778,29.9
2.06666666666667,11.785675781335,27.2972562871629,0.930487245413625,-0.203435083873263,3,13.8444444444444,29.9
2.1,11.7855329246653,27.3249386397141,0.73117265450688,-0.199314590906744,3,13.8296875,29.9
2.13333333333333,11.7854219898034,27.3460460636577,0.535978588840106,-0.195194065666774,3,13.8131944444444,29.9
2.16666666666667,11.7853426733729,27.360716712594,0.344985284016857,-0.190993304823249,3,13.7949652777778,29.9
2.2,11.785294592662,27.3690916336626,0.158225789991625,-0.186759494025232,3,13.775,29.9
2.23333333333333,11.7852780827627,27.3710974843449,0.0588237930545406,-0.0994019969370842,3,13.7532986111111,29.9
2.26666666666667,11.7852844812847,27.3691371551301,0.0017026679719705,-0.0571211250825701,3,13.7298611111111,29.9
2.3,11.7852844812847,27.3691371551301,0.00289885663730763,0.00119618866533713,5,13.7046875,29.9
2.33333333333333,11.7852844812847,27.3691371551301,0.00481313490118144,0.00191427826387381,5,13.6777777777778,29.9
2.36666666666667,11.7852844812847,27.3691371551301,0.00729247725232956,0.00247934235114813,5,13.6491319444444,29.9
2.4,11.7852844812847,27.3691371551301,0.010100044377993,0.00280756712566344,5,13.61875,29.9
2.43333333333333,11.7852844812847,27.3691371551301,0.012954322031917,0.00285427765392401,5,13.5866319444444,29.9
2.46666666666667,11.7852844812847,27.3691371551301,0.0155662824516171,0.00261196041970005,5,13.5527777777778,29.9
2.5,11.7852844812847,27.3691371551301,0.0176716821200047,0.00210539966838764,5,13.5171875,29.9
2.53333333333333,11.7852844812847,27.3691371551301,0.019056484382395,0.00138480226239033,5,13.4798611111111,29.9
2.56666666666667,11.7852844812847,27.3691371551301,0.0195742784958181,0.000517794113423082,5,13.4407986111111,29.9
2.6,11.7852844812847,27.3691371551301,0.0191553909999928,-0.000418887495825318,5,13.4,29.9
2.63333333333333,11.7852844812847,27.3691371551301,0.0178080992812653,-0.00134729171872747,5,13.3574652777778,29.9
2.66666666666667,11.7852844812847,27.3691371551301,0.0156129258539161,-0.00219517342734927,5,13.3131944444444,29.9
2.7,11.7852844812847,27.3691371551301,0.0127113965063026,-0.00290152934761347,5,13.2671875,29.9
2.73333333333333,11.7852844812847,27.3691371551301,0.00929088227637113,-0.00342051422993146,5,13.2194444444444,29.9
2.76666666666667,11.7852844812847,27.3691371551301,0.00556722319579341,-0.00372365908057772,5,13.1699652777778,29.9
2.8,11.7852844812847,27.3691371551301,0.00176676986427371,-0.0038004533315197,5,13.11875,29.9
2.83333333333333,11.7852844812847,27.3691371551301,0.00189069676549531,0.000123926901221599,5,13.0657986111111,29.9
2.86666666666667,11.7852844812847,27.3691371551301,0.00520696636268604,0.00331626959719073,5,13.0111111111111,29.9
2.9,11.7852844812847,27.3691371551301,0.00801743150314796,0.00281046514046192,5,12.9546875,29.9
2.93333333333333,11.7852844812847,27.3691371551301,0.0101995952943391,0.0021821637911911,5,12.8965277777778,29.9
2.96666666666667,11.7852844812847,27.3691371551301,0.0116778264907688,0.00147823119642973,5,12.8366319444444,29.9
3,11.7852844812847,27.3691371551301,0.0124244342510361,0.000746607760267267,5,12.775,29.9
3.03333333333333,11.7852844812847,27.3691371551301,0.012457389203768,3.29549527319506e-05,5,12.7116319444444,29.9
3.06666666666667,11.7852844812847,27.3691371551301,0.0118352149331975,-0.000622174270570529,5,12.6465277777778,29.9
3.1,11.7852844812847,27.3691371551301,0.0106497084786314,-0.00118550645456611,5,12.5796875,29.9
3.13333333333333,11.7852844812847,27.3691371551301,0.0090172193246098,-0.00163248915402158,5,12.5111111111111,29.9
3.16666666666667,11.7852844812847,27.3691371551301,0.00706922750110054,-0.00194799182350926,5,12.4407986111111,29.9
3.2,11.7852844812847,27.3691371551301,0.00494292024133476,-0.00212630725976577,5,12.36875,29.9
3.23333333333333,11.7852844812847,27.3691371551301,0.00277238311246692,-0.00217053712886784,5,12.2949652777778,29.9
3.26666666666667,11.7852844812847,27.3691371551301,0.000680907071605198,-0.00209147604086172,5,12.2194444444444,29.9
3.3,11.7852844812847,27.3691371551301,0.0012252205779165,0.000544313506311304,5,12.1421875,29.9
3.33333333333333,11.7852844812847,27.3691371551301,0.00286121432370223,0.00163599374578573,5,12.0631944444444,29.9
3.36666666666667,11.7852844812847,27.3691371551301,0.00416648871326395,0.00130527438956172,5,11.9824652777778,29.9
3.4,11.7852844812847,27.3691371551301,0.00510559414585577,0.000939105432591825,5,11.9,29.9
3.43333333333333,11.7852844812847,27.3691371551301,0.00566753546494487,0.000561941319089095,5,11.8157986111111,29.9
3.46666666666667,11.7852844812847,27.3691371551301,0.00586370343373774,0.000196167968792871,5,11.7298611111111,29.9
3.5,11.7852844812847,27.3691371551301,0.0057247084372055,-0.00013899499653224,5,11.6421875,29.9
3.53333333333333,11.7852844812847,27.3691371551301,0.00529643901943068,-0.000428269417774825,5,11.5527777777778,29.9
3.56666666666667,11.7852844812847,27.3691371551301,0.00463567643642349,-0.000660762583007181,5,11.4616319444444,29.9
3.6,11.7852844812847,27.3691371551301,0.00380558300358959,-0.000830093432833906,5,11.36875,29.9
3.63333333333333,11.7852844812847,27.3691371551301,0.00287135040809374,-0.000934232595495848,5,11.2741319444444,29.9
3.66666666666667,11.7852844812847,27.3691371551301,0.00189624875574322,-0.00097510165235052,5,11.1777777777778,29.9
3.7,11.7852844812847,27.3691371551301,0.000938262621710016,-0.000957986134033204,5,11.0796875,29.9
3.73333333333333,11.7852844812847,27.3691371551301,4.74414024765566e-05,-0.000890821219233459,5,10.9798611111111,29.9
3.76666666666667,11.7852844812847,27.3691371551301,0.000735967899604755,0.000688526497128198,5,10.8782986111111,29.9
3.8,11.7852844812847,27.3691371551301,0.00138259298350222,0.000646625083897465,5,10.775,29.9
3.83333333333333,11.7852844812847,27.3691371551301,0.00187425034142468,0.000491657357922459,5,10.6699652777778,29.9
3.86666666666667,11.7852844812847,27.3691371551301,0.00220357834612276,0.000329328004698082,5,10.5631944444444,29.9
3.9,11.7852844812847,27.3691371551301,0.00237309708209437,0.000169518735971614,5,10.4546875,29.9
3.93333333333333,11.7852844812847,27.3691371551301,0.00239382269932848,2.07256172341029e-05,5,10.3444444444444,29.9
3.96666666666667,11.7852844812847,27.3691371551301,0.00228357378394659,-0.00011024891538189,5,10.2324652777778,29.9
4,11.7852844812847,27.3691371551301,0.00206510744272579,-0.000218466341220795,5,10.11875,29.9
4.03333333333333,11.7852844812847,27.3691371551301,0.00176421476203867,-0.000300892680687125,5,10.0032986111111,29.9
4.06666666666667,11.7852844812847,27.3691371551301,0.00140789062775126,-0.000356324134287404,5,9.88611111111111,29.9
4.1,11.7852844812847,27.3691371551301,0.00102267336535139,-0.000385217262399869,5,9.7671875,29.9
4.13333333333333,11.7852844812847,27.3691371551301,0.000633227110757255,-0.00038944625459414,5,9.64652777777778,29.9
4.16666666666667,11.7852844812847,27.3691371551301,0.000261216012261413,-0.000372011098495842,5,9.52413194444444,29.9
4.2,11.7852844812847,27.3691371551301,7.5504115386523e-05,-0.00018571189687489,5,9.4,29.9
4.23333333333333,11.7852844812847,27.3691371551301,0.000363372862577782,0.000287868747191259,5,9.27413194444444,29.9
4.26666666666667,11.7852844812847,27.3691371551301,0.000593306257342156,0.000229933394764374,5,9.14652777777778,29.9
4.3,11.7852844812847,27.3691371551301,0.000760602561566474,0.000167296304224319,5,9.0171875,29.9
4.33333333333333,11.7852844812847,27.3691371551301,0.000864615276354909,0.000104012714788435,5,8.88611111111111,29.9
4.36666666666667,11.7852844812847,27.3691371551301,0.000908243379137526,4.36281027826164e-05,5,8.75329861111111,29.9
4.4,11.7852844812847,27.3691371551301,0.000897292447684937,-1.09509314525885e-05,5,8.61875,29.9
4.43333333333333,11.7852844812847,27.3691371551301,0.000839760351552191,-5.75320961327458e-05,5,8.48246527777778,29.9
4.46666666666667,11.7852844812847,27.3691371551301,0.000745098112622017,-9.46622389301741e-05,5,8.34444444444444,29.9
4.5,11.7852844812847,27.3691371551301,0.000623490968145257,-0.00012160714447676,5,8.2046875,29.9
4.53333333333333,11.7852844812847,27.3691371551301,0.000485197286008329,-0.000138293682136928,5,8.06319444444444,29.9
4.56666666666667,11.7852844812847,27.3691371551301,0.00033997446763796,-0.000145222818370369,5,7.91996527777778,29.9
4.6,11.7852844812847,27.3691371551301,0.000196611982364582,-0.000143362485273378,5,7.775,29.9
4.63333333333333,11.7852844812847,27.3691371551301,6.2582796153366e-05,-0.000134029186211216,5,7.62829861111111,29.9
4.66666666666667,11.7852844812847,27.3691371551301,5.61838153195623e-05,-6.39898083380375e-06,5,7.47986111111111,29.9
4.7,11.7852844812847,27.3691371551301,0.000155412353690202,9.922853837064e-05,5,7.3296875,29.9
4.73333333333333,11.7852844812847,27.3691371551301,0.000232484369076287,7.70720153860849e-05,5,7.17777777777778,29.9
4.76666666666667,11.7852844812847,27.3691371551301,0.000286349761727448,5.38653926511608e-05,5,7.02413194444444,29.9
4.8,11.7852844812847,27.3691371551301,0.00031736402971117,3.10142679837224e-05,5,6.86875,29.9
4.83333333333333,11.7852844812847,27.3691371551301,0.000327070993026735,9.70696331556448e-06,5,6.71163194444444,29.9
4.86666666666667,11.7852844812847,27.3691371551301,0.000317950802048702,-9.12019097803308e-06,5,6.55277777777778,29.9
4.9,11.7852844812847,27.3691371551301,0.000194539726130562,-0.000123411075918139,5,6.3921875,29.9
4.93333333333333,11.7852831364159,27.3695094866701,0.018715144113667,0.0185206043875365,4,6.22986111111111,29.9
4.96666666666667,11.7852798766872,27.3704119428206,0.0353991072304764,0.0166839631168094,5,6.06579861111111,29.9
5,11.7852739967983,27.3720390418569,0.06217687425904,0.0267777670285636,4,5.9,29.9
5.03333333333333,11.7852645959936,27.3746382255254,0.0937033917860756,0.0315265175270356,4,5.9,29.9
5.06666666666667,11.7852512007504,27.3783363871626,0.128096876374734,0.0343934845886581,4,5.9,29.9
5.1,11.7852336552443,27.3831689473442,0.161754094296555,0.0336572179218213,4,5.9,29.9
5.13333333333333,11.7852114888869,27.3892537762213,0.203218156213508,0.0414640619169535,4,5.9,29.9
5.16666666666667,11.7851838050802,27.3968202864649,0.250636910140207,0.0474187539266987,4,5.9,29.9
5.2,11.7851502089805,27.405950085763,0.297018151789391,0.0463812416491837,4,5.9,29.9
5.23333333333333,11.7851106855442,27.4166088898671,0.342381317130952,0.0453631653415611,4,5.9,29.9
5.26666666666667,11.7850651755249,27.4287631484587,0.386747659619966,0.0443663424890137,4,5.9,29.9
5.3,11.785013575319,27.4423799870283,0.430136545046944,0.0433888854269786,4,5.9,29.9
5.33333333333333,11.7849557392138,27.4574271443514,0.472564951824477,0.0424284067775326,4,5.9,29.9
5.36666666666667,11.7848914850074,27.4738726605618,0.514030831562421,0.0414658797379437,4,5.9,29.9
5.4,11.7848206033206,27.4916842221565,0.554521509558565,0.0404906779961446,4,5.9,29.9
5.43333333333333,11.7847428665746,27.5108292338676,0.594033777700729,0.0395122681421638,4,5.9,29.9
5.46666666666667,11.7846580391056,27.531275119073,0.632572112069332,0.0385383343686032,4,5.9,29.9
5.5,11.7845658890421,27.5529895396165,0.670146401566585,0.0375742894972531,4,5.9,29.9
5.53333333333333,11.7844662011356,27.5759405878466,0.706775601547708,0.0366291999811229,4,5.9,29.9
5.56666666666667,11.7843587875589,27.6000975718448,0.742515437215696,0.035739835667988,4,5.9,29.9
5.6,11.7842434977592,27.6254318711979,0.777426341225433,0.0349109040097364,4,5.9,29.9
5.63333333333333,11.7841202308813,27.6519166820791,0.811556908200136,0.0341305669747031,4,5.9,29.9
5.66666666666667,11.7839889463327,27.6795266759231,0.844946966634699,0.0333900584345638,4,5.9,29.9
5.7,11.7838496712392,27.7082377455923,0.877629831350335,0.0326828647156354,4,5.9,29.9
5.73333333333333,11.7837025043833,27.7380268149103,0.909634206153057,0.0320043748027226,4,5.9,29.9
5.76666666666667,11.7835476170259,27.7688715155622,0.940964741533077,0.0313305353800201,4,5.9,29.9
5.8,11.7833852539359,27.8007488176077,0.971586246970529,0.0306215054374513,4,5.9,29.9
5.83333333333333,11.7832157269477,27.8336346969824,1.00147741311924,0.0298911661487085,4,5.9,29.9
5.86666666666667,11.783039401964,27.8675046472279,1.03062950220875,0.0291520890895136,4,5.9,29.9
5.9,11.7828566837245,27.9023339998296,1.05904175511623,0.0284122529074771,4,5.9,29.9
5.93333333333333,11.7826679984692,27.9380981922508,1.08672120616355,0.0276794510473175,4,5.9,29.9
5.96666666666667,11.7824737752876,27.9747729915614,1.1136803906867,0.0269591845231587,4,5.9,29.9
6,11.7822744271973,28.0123346490834,1.13993609809478,0.0262557074080718,4,5.9,29.9
6.03333333333333,11.782070332181,28.0507601871816,1.16552107708836,0.0255849789935816,4,5.9,29.9
6.06666666666667,11.7818618144263,28.0900280103839,1.19048080334807,0.0249597262597163,4,5.9,29.9
6.1,11.7816491302961,28.1301179436426,1.21485426699397,0.0243734636458917,4,5.9,29.9
6.13333333333333,11.7814324587365,28.1710110068317,1.23867436856234,0.0238201015683752,4,5.9,29.9
6.16666666666667,11.7812118956198,28.2126892361719,1.26196932922533,0.0232949606629878,4,5.9,29.9
6.2,11.7809874525385,28.255135546149,1.2847637396958,0.0227944104704703,4,5.9,29.9
6.23333333333333,11.7807590602973,28.2983336216604,1.3070793411956,0.0223156014998027,4,5.9,29.9
6.26666666666667,11.7805265770281,28.3422678327962,1.32893560823839,0.0218562670427909,4,5.9,29.9
6.3,11.7802898005084,28.3869231666383,1.35035018533207,0.0214145770936811,4,5.9,29.9
6.33333333333333,11.7800484839912,28.432285160753,1.37133751982617,0.0209873344941012,4,5.9,29.9
6.36666666666667,11.7798023553856,28.4783396316691,1.39189923500145,0.0205617151752795,4,5.9,29.9
6.4,11.7795511378085,28.5250723780699,1.4120354457434,0.0201362107419494,4,5.9,29.9
6.43333333333333,11.7792945667433,28.5724696500141,1.43179191059023,0.01975646484683,4,5.9,29.9
6.46666666666667,11.7790323919712,28.6205217500986,1.45137186283082,0.0195799522405851,4,5.9,29.9
6.5,11.7787643703396,28.6692279183583,1.47109868718852,0.0197268243577031,4,5.9,29.9
6.53333333333333,11.778490260449,28.7185995998448,1.49137768449163,0.0202789973031063,4,5.9,29.9
6.56666666666667,11.7782098149758,28.7686629039745,1.51267949180364,0.0213018073120104,4,5.9,29.9
