Time,x_ego,y_ego,velocity,acceleration,action,x_ped,y_ped
0,11.8,15.9,7,0,1,15.5,29.9
0.0333333333333333,11.8,16.1332703793943,6.99615577953002,-0.00384422046998356,1,15.5,29.9
0.0666666666666667,11.8,16.3664065988113,6.99196947109348,-0.00418630843653833,1,15.5,29.9
0.1,11.8,16.5994007552791,6.98769498718995,-0.00427448390352669,1,15.5,29.9
0.133333333333333,11.8,16.8322537852842,6.9834976545359,-0.00419733265404787,1,15.5,29.9
0.166666666666667,11.8,17.0649678802301,6.97935585456763,-0.00414179996826913,1,15.5,29.9
0.2,11.8,17.2975446186632,6.97525409491249,-0.00410175965514537,1,15.5,29.9
0.233333333333333,11.8,17.5299851399444,6.97118127319767,-0.00407282171482137,1,15.5,29.9
0.266666666666667,11.8,17.7622902687052,6.96712943294736,-0.00405184025031069,1,15.5,29.9
0.3,11.7999975198549,17.9944606040312,6.96309287518604,-0.00403655776131906,1,15.5,29.9
0.333333333333333,11.7999828356787,18.2264965833055,6.95906753165736,-0.00402534352867612,1,15.5,29.9
0.366666666666667,11.799951909346,18.4583985277782,6.95505046890054,-0.00401706275681768,1,15.5,29.9
0.4,11.7999066200342,18.6901666754391,6.95103956576897,-0.00401090313157848,1,15.5,29.9
0.433333333333333,11.7998504696069,18.9218012048733,6.94703329837322,-0.00400626739574239,1,15.5,29.9
0.466666666666667,11.7997892377707,19.1533022525995,6.9430305874663,-0.00400271090692517,1,15.5,29.9
0.5,11.7997283754271,19.384669925198,6.93903067287212,-0.00399991459417759,1,15.5,29.9
0.533333333333333,11.7996741611133,19.6159043079728,6.93503302275437,-0.00399765011774722,1,15.5,29.9
0.566666666666667,11.7996307595478,19.8470054704056,6.93103725873929,-0.00399576401508561,1,15.5,29.9
0.6,11.7996001047335,20.0779734701238,6.92704309542195,-0.00399416331733615,1,15.5,29.9
0.633333333333333,11.7995827032057,20.3088083560582,6.9230503192084,-0.00399277621354965,1,15.5,29.9
0.666666666666667,11.7995782476268,20.53951017092,6.91905877417134,-0.00399154503706445,1,15.5,29.9
0.7,11.7995860175281,20.7700789530793,6.91506834925214,-0.00399042491920021,1,15.5,29.9
0.733333333333333,11.7996051007235,21.0005147379271,6.9110789664985,-0.00398938275363303,1,15.5,29.9
0.766666666666667,11.7996344953432,21.2308175588234,6.90709057132195,-0.00398839517655691,1,15.5,29.9
0.8,11.7996731536841,21.4609874477414,6.90310312525199,-0.00398744606995827,1,15.5,29.9
0.833333333333333,11.79972001398,21.6910244356992,6.899116600957,-0.00398652429498991,1,15.5,29.9
0.866666666666667,11.799774044341,21.9209285530457,6.89513097895892,-0.00398562199807451,1,15.5,29.9
0.9,11.7998343025469,22.150699829647,6.89114624545304,-0.00398473350588535,1,15.5,29.9
0.933333333333333,11.7999000012445,22.3803382950077,6.88716239077894,-0.0039838546740949,1,15.5,29.9
0.966666666666667,11.7999705623358,22.6098439783481,6.88317940825913,-0.00398298251981632,1,15.5,29.9
1,11.8000456461454,22.839216908657,6.87919729327117,-0.00398211498795575,1,15.5,29.9
1.03333333333333,11.8001251477371,23.0684571147291,6.87521604251821,-0.00398125075296285,1,15.5,29.9
1.06666666666667,11.8002091613187,23.2975646251972,6.8712356534985,-0.00398038901971098,1,15.5,29.9
1.1,11.8002979211381,23.5265394685608,6.86725612416344,-0.00397952933506041,1,15.5,29.9
1.13333333333333,11.8003917317453,23.7553816732157,6.86327745272679,-0.00397867143664765,1,15.5,29.9
1.16666666666667,11.8004909012834,23.9840912674822,6.85929963757449,-0.00397781515229756,1,15.5,29.9
1.2,11.8005956889906,24.212668279633,6.85532267723156,-0.00397696034293027,1,15.5,29.9
1.23333333333333,11.8007062735036,24.4411127379152,6.85134657035959,-0.0039761068719768,1,15.5,29.9
1.26666666666667,11.8008235298178,24.6694246702813,6.84737132655484,-0.0039752438047449,1,15.5,29.9
1.3,11.8009508227308,24.8976041036083,6.84339695114916,-0.00397437540567935,1,15.5,29.9
1.33333333333333,11.8010907879871,25.1256510646847,6.83942343727745,-0.00397351387170719,1,15.5,29.9
1.36666666666667,11.8012447467129,25.3535655805111,6.83545077758264,-0.00397265969481619,1,15.5,29.9
1.4,11.8014131030297,25.5813476782765,6.83147896518061,-0.00397181240202915,1,15.5,29.9
1.43333333333333,11.8015957025879,25.8089973853383,6.82750799521869,-0.00397096996192303,1,15.5,29.9
1.46666666666667,11.8017921072701,26.0365147292066,6.82353786544596,-0.00397012977272304,1,15.5,29.9
1.5,11.8020017752427,26.2638997375274,6.81956857573325,-0.00396928971271038,1,15.5,29.9
1.53333333333333,11.8022241589152,26.4911524380647,6.81560012712009,-0.00396844861316747,1,15.5,29.9
1.56666666666667,11.802458745194,26.7182728586804,6.81163252093722,-0.00396760618286063,1,15.5,29.9
1.6,11.8027050642465,26.9452610273136,6.80766575826879,-0.00396676266843166,1,15.5,29.9
1.63333333333333,11.8029626879483,27.1721169719587,6.80369983976603,-0.00396591850275829,1,15.5,29.9
1.66666666666667,11.8032312308601,27.3988407206384,6.79973476569904,-0.00396507406699431,1,15.5,29.9
1.7,11.8035103581419,27.625432301374,6.79577053611105,-0.00396422958799292,1,15.5,29.9
1.73333333333333,11.803799798457,27.8518917421519,6.79180715097096,-0.00396338514008221,1,15.5,29.9
1.76666666666667,11.8040993566336,28.0782190708936,6.78784461026653,-0.00396254070443636,1,15.5,29.9
1.8,11.8044089205726,28.3044143154328,6.7838829140238,-0.00396169624272691,1,15.5,29.9
1.83333333333333,11.8047284587833,28.5304775035045,6.77992206226947,-0.00396085175433125,1,15.5,29.9
1.86666666666667,11.8050580078462,28.7564086627474,6.77596205496683,-0.00396000730264312,1,15.5,29.9
1.9,11.8053968733416,28.982207821666,6.77200287214901,-0.00395918281781427,1,15.5,29.9
1.93333333333333,11.8057418347922,29.2078750120533,6.76804450933494,-0.00395836281407469,1,15.5,29.9
1.96666666666667,11.806090327128,29.4334102653671,6.76408698489201,-0.0039575244429253,1,15.5,29.9
2,11.8064410357264,29.6588136117293,6.76013030891434,-0.00395667597766813,1,15.5,29.9
2.03333333333333,11.8067935219471,29.8840850801508,6.75617448462754,-0.00395582428680363,1,15.5,29.9
2.06666666666667,11.807147885648,30.1092246988412,6.75221951129657,-0.00395497333097339,1,15.5,29.9
2.1,11.807504506676,30.3342324955082,6.74826538661441,-0.00395412468215994,1,15.5,29.9
2.13333333333333,11.8078638750635,30.5591084975879,6.7443121080582,-0.00395327855620486,1,15.5,29.9
2.16666666666667,11.8082264976272,30.7838527323908,6.74035967344607,-0.00395243461213202,1,15.5,29.9
2.2,11.8085928577536,31.0084652271772,6.73640808106739,-0.0039515923786837,1,15.5,29.9
2.23333333333333,11.8089634037728,31.2329460091902,6.73245732963968,-0.00395075142771084,1,15.5,29.9
2.26666666666667,11.8093377316788,31.4572951069185,6.72850740818671,-0.00394992145297035,1,15.5,29.9
2.3,11.809712683899,31.6815125531384,6.72455831461953,-0.00394909356717577,1,15.5,29.9
2.33333333333333,11.8100847841212,31.9055983813444,6.72061005350819,-0.00394826111133995,1,15.5,29.9
2.36666666666667,11.8104475973427,32.1295526298378,6.71666263449307,-0.00394741901512408,1,15.5,29.9
2.4,11.8107903353609,32.3533753437574,6.71271610724997,-0.00394652724309275,1,15.5,29.9
2.43333333333333,11.811102038986,32.5770375020297,6.7070266338462,-0.00568947340377512,1,15.5,29.9
2.46666666666667,11.8113727794551,32.800510084592,6.70133839557506,-0.00568823827114073,1,15.5,29.9
2.5,11.8115937854773,33.0237640696343,6.69390755766254,-0.00743083791251919,1,15.5,29.9
2.53333333333333,11.8117579721757,33.2467417320499,6.68475613716315,-0.00915142049939011,1,15.5,29.9
2.56666666666667,11.8118624500561,33.4693566433989,6.67214040327522,-0.0126157338879294,1,15.5,29.9
2.6,11.8119078204126,33.6915510852846,6.65952678825704,-0.0126136150181759,1,15.5,29.9
2.63333333333333,11.8118967392033,33.9132673459932,6.64344935172601,-0.0160774365310283,1,15.5,29.9
2.66666666666667,11.8118328920288,34.1344477277152,6.62737462080712,-0.0160747309188976,1,15.5,29.9
2.7,11.8117203589498,34.3550636102801,6.60958064390951,-0.0177939768976056,1,15.5,29.9
2.73333333333333,11.8115631540599,34.5750576830992,6.5900677696556,-0.0195128742539161,3,15.5,29.9
2.76666666666667,11.8113658227662,34.7944013517173,6.57055838512192,-0.0195093845336709,3,15.5,29.9
2.8,11.8111351113561,35.0130947334991,6.5510526081602,-0.0195057769617284,3,15.5,29.9
2.83333333333333,11.8108773279415,35.2311379531396,6.53155054142384,-0.0195020667363526,3,15.5,29.9
2.86666666666667,11.8106001526834,35.4485311413702,6.5120522235614,-0.0194983178624479,3,15.5,29.9
2.9,11.8103124323365,35.6652744346099,6.49255773140686,-0.0194944921545321,3,15.5,29.9
2.93333333333333,11.8100231682989,35.8813679739413,6.47306716195972,-0.0194905694471412,3,15.5,29.9
2.96666666666667,11.8097410032576,36.0968119035617,6.45358061352352,-0.0194865484361983,3,15.5,29.9
3,11.8094730405677,36.311606368453,6.4340982012883,-0.0194824122352255,3,15.5,29.9
3.03333333333333,11.8092222969854,36.5257515107059,6.41461998542062,-0.0194782158676805,3,15.5,29.9
3.06666666666667,11.8089883958843,36.7392474683973,6.39514594775507,-0.0194740376655469,3,15.5,29.9
3.1,11.8087689347823,36.952094376257,6.37567604245181,-0.0194699053032599,3,15.5,29.9
3.13333333333333,11.8085605349987,37.1642923668432,6.3562102254242,-0.0194658170276121,3,15.5,29.9
3.16666666666667,11.8083588260847,37.3758415709981,6.33674847039011,-0.0194617550340901,3,15.5,29.9
3.2,11.8081571907095,37.5867421171035,6.31729075751993,-0.0194577128701772,3,15.5,29.9
3.23333333333333,11.8079499988932,37.7969941339332,6.29783707275185,-0.0194536847680826,3,15.5,29.9
3.26666666666667,11.8077325552047,38.006597750581,6.27838741719208,-0.0194496555597716,3,15.5,29.9
3.3,11.80749899482,38.2156104991695,6.26238601499319,-0.016001402198885,1,15.5,29.9
3.33333333333333,11.8072451066837,38.4241476714963,6.2498542279886,-0.0125317870045905,1,15.5,29.9
3.36666666666667,11.8069687587677,38.6323249080915,6.24079153172034,-0.00906269626826095,1,15.5,29.9
3.4,11.8066693916987,38.8402287668091,6.23345343389332,-0.00733809782702366,1,15.5,29.9
3.43333333333333,11.8063475118218,39.0479461546849,6.22960523766387,-0.00384819622944477,1,15.5,29.9
3.46666666666667,11.8060036117287,39.2555352590199,6.22575854760404,-0.00384669005983174,1,15.5,29.9
3.5,11.8056354707092,39.4629961208797,6.22191321067007,-0.00384533693396616,1,15.5,29.9
