Time,x_ego,y_ego,velocity,acceleration,action,x_ped,y_ped
0,11.8,15.9,5,0,1,15.5,29.9
0.0333333333333333,11.7999993820357,16.0666076888418,4.99642261466935,-0.00357738533064911,1,15.4502170138889,29.9
0.0666666666666667,11.7999954176174,16.2330926531086,4.9926475711652,-0.00377504350415148,1,15.4008680555556,29.9
0.1,11.7999857492211,16.3994492968689,4.98873131359086,-0.00391625757433989,1,15.351953125,29.9
0.133333333333333,11.7999696351985,16.5656736242698,4.98471429100852,-0.00401702258234327,1,15.3034722222222,29.9
0.166666666666667,11.7999492668863,16.731762786352,4.98062548996764,-0.00408880104087572,1,15.2554253472222,29.9
0.2,11.7999270808081,16.8977147562529,4.97648569256763,-0.0041397974000148,1,15.2078125,29.9
0.233333333333333,11.7999049239953,17.0635280963579,4.97230979674627,-0.00417589582135669,1,15.1606336805556,29.9
0.266666666666667,11.7998840501734,17.2292017913698,4.96810848077888,-0.00420131596739282,1,15.1138888888889,29.9
0.3,11.7998651972049,17.3947351286462,4.96388939728483,-0.0042190834940472,1,15.067578125,29.9
0.333333333333333,11.7998486998167,17.5601276124352,4.95965803002421,-0.00423136726061912,1,15.0217013888889,29.9
0.366666666666667,11.7998346028459,17.7253789024153,4.95541830857445,-0.0042397214497587,1,14.9762586805556,29.9
0.4,11.7998227549221,17.8904887696556,4.95117304903359,-0.00424525954085642,1,14.93125,29.9
0.433333333333333,11.7998128763521,18.0554570650586,4.94692426977424,-0.00424877925935974,1,14.8866753472222,29.9
0.466666666666667,11.7998046049916,18.2202836967439,4.94267341756482,-0.0042508522094149,1,14.8425347222222,29.9
0.5,11.7997975288089,18.3849686138389,4.93842152947501,-0.00425188808981414,1,14.798828125,29.9
0.533333333333333,11.7997912139837,18.5495117948593,4.93416934881766,-0.00425218065734168,1,14.7555555555556,29.9
0.566666666666667,11.799785234195,18.7139132393792,4.92991740820778,-0.00425194060988066,1,14.7127170138889,29.9
0.6,11.7997792022117,18.8781729620599,4.92566608909812,-0.00425131910966314,1,14.6703125,29.9
0.633333333333333,11.7997728008406,19.0422909883699,4.92141566448423,-0.00425042461388614,1,14.6283420138889,29.9
0.666666666666667,11.7997658079973,19.2062673515162,4.91716632956329,-0.00424933492094137,1,14.5868055555556,29.9
0.7,11.7997581106198,19.3701020902464,4.9129182237661,-0.0042481057971937,1,14.545703125,29.9
0.733333333333333,11.7997497040699,19.5337952472722,4.90867144660301,-0.00424677716308874,1,14.5050347222222,29.9
0.766666666666667,11.7997406767555,19.6973468681398,4.90442606906149,-0.00424537754152254,1,14.4648003472222,29.9
0.8,11.7997311829192,19.8607570004188,4.90018214179001,-0.00424392727147627,1,14.425,29.9
0.833333333333333,11.7997214089621,20.0240256931209,4.89593970094921,-0.00424244084080527,1,14.3856336805556,29.9
0.866666666666667,11.7997115397005,20.1871529962816,4.89169877236753,-0.0042409285816758,1,14.3467013888889,29.9
0.9,11.7997017320349,20.3501098949208,4.88571546406104,-0.00598330830649019,1,14.308203125,29.9
0.933333333333333,11.7996921049124,20.5126940753811,4.86933590340434,-0.0163795606566968,1,14.2701388888889,29.9
0.966666666666667,11.7996827251631,20.6746749223846,4.84951565941997,-0.0198202439843769,3,14.2325086805556,29.9
1,11.7996736183487,20.8356779921668,4.8106697824407,-0.0388458769792708,3,14.1953125,29.9
1.03333333333333,11.799664777846,20.995242095641,4.76317820721593,-0.0474915752247673,3,14.1585503472222,29.9
1.06666666666667,11.7996561632991,21.1531368599164,4.71050998155407,-0.0526682256618543,3,14.1222222222222,29.9
1.1,11.7996477258779,21.3091897701899,4.65266764443175,-0.0578423371223229,3,14.086328125,29.9
1.13333333333333,11.7996394176135,21.4633435646528,4.5965637935849,-0.0561038508468554,3,14.0508680555556,29.9
1.16666666666667,11.7996312021788,21.61559880389,4.53875533014149,-0.0578084634434051,3,14.0158420138889,29.9
1.2,11.7996230620161,21.765927384794,4.48096546128442,-0.0577898688570686,3,13.98125,29.9
1.23333333333333,11.7996149930516,21.9143299366764,4.4231948187094,-0.0577706425750257,3,13.9470920138889,29.9
1.26666666666667,11.7996070029455,22.0607784063854,4.36372167918381,-0.0594731395255872,3,13.9133680555556,29.9
1.3,11.7995991036537,22.2052447595051,4.30426865612727,-0.0594530230565375,3,13.9133680555556,29.9
1.33333333333333,11.7995913063267,22.3477006129527,4.24309209977839,-0.0611765563488804,3,13.9133680555556,29.9
1.36666666666667,11.7995836211929,22.4880598292854,4.17847035785953,-0.0646217419188613,3,13.9133680555556,29.9
1.4,11.7995760533768,22.6262366553342,4.11214813802787,-0.0663222198316573,3,13.9133680555556,29.9
1.43333333333333,11.7995686007662,22.7622031282504,4.04584824907753,-0.0662998889503381,3,13.9133680555556,29.9
1.46666666666667,11.799561257886,22.8959600029139,3.9795711296169,-0.0662771194606377,3,13.9133680555556,29.9
1.5,11.7995540216768,23.0274793410359,3.91159497826688,-0.0679761513500212,3,13.9133680555556,29.9
1.53333333333333,11.7995468936401,23.1567041491395,3.8418984528326,-0.0696965254342783,3,13.9133680555556,29.9
1.56666666666667,11.7995398792715,23.283577447211,3.77050381514353,-0.0713946376890648,3,13.9133680555556,29.9
1.6,11.7995329862037,23.4080713357156,3.69913363799165,-0.0713701771518824,3,13.9133680555556,29.9
1.63333333333333,11.7995262228661,23.5301866284517,3.62778811824911,-0.0713455197425397,3,13.9133680555556,29.9
1.66666666666667,11.7995195980662,23.6499241453821,3.55646734454896,-0.0713207737001529,3,13.9133680555556,29.9
1.7,11.7995131189332,23.767284710097,3.48517133686896,-0.0712960076799956,3,13.9133680555556,29.9
1.73333333333333,11.7995067893459,23.8822691479948,3.41390007708781,-0.0712712597811507,3,13.9133680555556,29.9
1.76666666666667,11.799500609213,23.9948782849811,3.34265353042176,-0.0712465466660506,3,13.9133680555556,29.9
1.8,11.7994945747245,24.1051129465354,3.2714316582951,-0.0712218721266651,3,13.9133680555556,29.9
1.83333333333333,11.7994886794403,24.2129739570451,3.20023442394848,-0.0711972343466125,3,13.9133680555556,29.9
1.86666666666667,11.7994829174654,24.3184334366654,3.12733965768795,-0.072894766260529,3,13.9133680555556,29.9
1.9,11.7994772835581,24.4214635078589,3.05446967641501,-0.0728699812729405,3,13.9133680555556,29.9
1.93333333333333,11.7994717729226,24.5220649985352,2.98162454372741,-0.0728451326876036,3,13.9133680555556,29.9
1.96666666666667,11.799466383556,24.6202387371543,2.90880428514042,-0.0728202585869901,3,13.9133680555556,29.9
2,11.7994611178976,24.7159564857231,2.83426495627167,-0.0745393288687493,3,13.9133680555556,29.9
2.03333333333333,11.7994559806327,24.8091900092295,2.75975067470712,-0.0745142815645532,3,13.9133680555556,29.9
2.06666666666667,11.7994509760608,24.8999401419843,2.6852614879868,-0.0744891867203128,3,13.9133680555556,29.9
2.1,11.7994461085191,24.9882077192317,2.61079739577108,-0.0744640922157278,3,13.9133680555556,29.9
2.13333333333333,11.7994413813607,25.0739935760329,2.53635836389495,-0.0744390318761305,3,13.9133680555556,29.9
2.16666666666667,11.79943679789,25.1572698437099,2.46022219548152,-0.0761361684134227,3,13.9133680555556,29.9
2.2,11.799432359631,25.2380086558704,2.38411116932714,-0.0761110261543849,3,13.9133680555556,29.9
2.23333333333333,11.7994280666654,25.3161821488823,2.30630317112109,-0.077807998206052,3,13.9133680555556,29.9
2.26666666666667,11.7994239183005,25.3917625030794,2.2285287228431,-0.0777744482779879,3,13.9133680555556,29.9
2.3,11.7994199120394,25.4647539253844,2.15106553179777,-0.0774631910453287,3,13.9133680555556,29.9
2.33333333333333,11.7994160448907,25.5351794132322,2.07472560717462,-0.0763399246231535,3,13.9133680555556,29.9
2.36666666666667,11.7994123148708,25.6030594346853,1.99838967019788,-0.0763359369767389,3,13.9133680555556,29.9
2.4,11.7994087202303,25.6684269882256,1.92398765074681,-0.0744020194510702,3,13.9133680555556,29.9
2.43333333333333,11.7994052598212,25.7313177623011,1.84977265859965,-0.0742149921471547,3,13.9133680555556,29.9
2.46666666666667,11.7994019346061,25.7917369841073,1.7756826716939,-0.0740899869057579,3,13.9133680555556,29.9
2.5,11.7993987457951,25.8496868490109,1.70158891113,-0.0740937605638936,3,13.9133680555556,29.9
2.53333333333333,11.7993956945782,25.905165728117,1.62741196755456,-0.0741769435754376,3,13.9133680555556,29.9
2.56666666666667,11.7993927834102,25.9581409486824,1.55136662527902,-0.0760453422755423,3,13.9133680555556,29.9
2.6,11.7993900158634,26.0085498867564,1.47342868736322,-0.0779379379158038,3,13.9133680555556,29.9
2.63333333333333,11.7993873934703,26.0563579791532,1.39531397799339,-0.0781147093698256,3,13.9133680555556,29.9
2.66666666666667,11.7993849174057,26.1015302504968,1.31528187583002,-0.0800321021633754,3,13.9133680555556,29.9
2.7,11.7993825870429,26.1440606063024,1.23679501644727,-0.0784868593827421,3,13.9133680555556,29.9
2.73333333333333,11.79938039857,26.1840001546433,1.15983072118669,-0.0769642952605838,3,13.9133680555556,29.9
2.76666666666667,11.7993783483111,26.2213994705295,1.08438316069013,-0.0754475604965583,3,13.9133680555556,29.9
2.8,11.7993764327659,26.2563098189936,1.0105070748677,-0.073876085822429,3,13.9133680555556,29.9
2.83333333333333,11.7993746485683,26.2887849621692,0.938282231723661,-0.0722248431440428,3,13.9133680555556,29.9
2.86666666666667,11.7993729925118,26.3188809154794,0.867759828364759,-0.0705224033589017,3,13.9133680555556,29.9
2.9,11.7993714616273,26.3466540775572,0.798897520334749,-0.0688623080300099,3,13.9133680555556,29.9
2.93333333333333,11.7993700533085,26.3721580340911,0.731591837464551,-0.0673056828701987,3,13.9133680555556,29.9
2.96666666666667,11.799368765266,26.3954432373721,0.665760085650061,-0.0658317518144895,3,13.9133680555556,29.9
3,11.7993675954093,26.4165579738843,0.601366357029838,-0.0643937286202232,3,13.9133680555556,29.9
3.03333333333333,11.7993665416613,26.4355506434781,0.53844094365987,-0.0629254133699677,3,13.9133680555556,29.9
3.06666666666667,11.7993656018669,26.4524705531424,0.47700271478822,-0.0614382288716497,3,13.9133680555556,29.9
3.1,11.7993647737891,26.4673673544637,0.417052895601564,-0.059949819186657,3,13.9133680555556,29.9
3.13333333333333,11.7993640551382,26.4802901330249,0.358551758841121,-0.0585011367604428,3,13.9133680555556,29.9
3.16666666666667,11.7993634436339,26.4912861326664,0.301437432778241,-0.0571143260628793,3,13.9133680555556,29.9
3.2,11.7993629354188,26.5004296658807,0.247395682433811,-0.0540417503444302,3,13.9133680555556,29.9
3.23333333333333,11.7993625250854,26.5078217959534,0.196349991325086,-0.0510456911087252,3,13.9133680555556,29.9
3.26666666666667,11.7993622056218,26.5135916089578,0.150072591095914,-0.046277400229172,3,13.9133680555556,29.9
3.3,11.7993619667014,26.5179276331851,0.110330711611301,-0.0397418794846127,3,13.9133680555556,29.9
3.33333333333333,11.7993617963685,26.5210474603485,0.0771034669606658,-0.0332272446506356,3,13.9133680555556,29.9
3.36666666666667,11.7993616748221,26.5233111234325,0.0589561340454482,-0.0181473329152175,3,13.9133680555556,29.9
3.4,11.7993615714253,26.5252756542625,0.0591335177567752,0.000177383711326924,5,13.9133680555556,29.9
3.43333333333333,11.7993614543846,26.5275188742061,0.0756348324362224,0.0165013146794472,5,13.9133680555556,29.9
3.46666666666667,11.7993612940699,26.5305787852308,0.108077510841323,0.0324426784051001,4,13.9133680555556,29.9
3.5,11.7993610662842,26.534893766338,0.150880811271191,0.0428033004298685,4,13.9133680555556,29.9
3.53333333333333,11.7993607569713,26.5407165813746,0.198501880793459,0.0476210695222685,4,13.9133680555556,29.9
3.56666666666667,11.7993603621429,26.5481154768649,0.245420493449968,0.0469186126565082,4,13.9133680555556,29.9
3.6,11.7993598829466,26.5570638351527,0.291478227455349,0.0460577340053813,4,13.9133680555556,29.9
3.63333333333333,11.7993593206014,26.5675323649714,0.33664252151662,0.0451642940612713,4,13.9133680555556,29.9
3.66666666666667,11.7993586762965,26.5794911437917,0.380898444922667,0.0442559234060471,4,13.9133680555556,29.9
3.7,11.7993579511926,26.5929099356013,0.424239239778362,0.0433407948556944,4,13.9133680555556,29.9
3.73333333333333,11.7993571464382,26.6077583956269,0.466664091442605,0.0424248516642437,4,13.9133680555556,29.9
3.76666666666667,11.7993562632049,26.6240060345751,0.508162363242908,0.0414982718003022,4,13.9133680555556,29.9
3.8,11.7993553027571,26.6416216773064,0.548712259129218,0.0405498958863109,4,13.9133680555556,29.9
3.83333333333333,11.7993542664874,26.6605735344552,0.588303906266286,0.0395916471370674,4,13.9133680555556,29.9
3.86666666666667,11.7993531559335,26.6808295882162,0.62693723129919,0.0386333250329046,4,13.9133680555556,29.9
3.9,11.7993519727924,26.702357878319,0.664618738532231,0.0376815072330402,4,13.9133680555556,29.9
3.93333333333333,11.7993507189272,26.725126716916,0.701361728445756,0.0367429899135253,4,13.9133680555556,29.9
3.96666666666667,11.7993493963322,26.7491053705527,0.737214865028119,0.0358531365823628,4,13.9133680555556,29.9
4,11.7993480070615,26.7742650859499,0.772237823971316,0.0350229589431974,4,13.9133680555556,29.9
4.03333333333333,11.7993465532033,26.8005789370947,0.80647843523364,0.0342406112623241,4,13.9133680555556,29.9
4.06666666666667,11.799345036848,26.8280214840777,0.839975619228315,0.0334971839946746,4,13.9133680555556,29.9
4.1,11.7993434600384,26.8565685170041,0.872761904623324,0.0327862853950094,4,13.9133680555556,29.9
4.13333333333333,11.7993418247103,26.8861968638799,0.904865260695079,0.0321033560717547,4,13.9133680555556,29.9
4.16666666666667,11.7993401326384,26.9168841105862,0.936295636751636,0.0314303760565573,4,13.9133680555556,29.9
4.2,11.7993383854424,26.948607411589,0.967021442124392,0.0307258053727562,4,13.9133680555556,29.9
4.23333333333333,11.7993365845787,26.9813428912819,0.997018917089433,0.0299974749650408,4,13.9133680555556,29.9
4.26666666666667,11.7993347312972,27.0150661166975,1.02627822363717,0.0292593065477342,4,13.9133680555556,29.9
4.3,11.7993328266341,27.0497524441729,1.05479774020081,0.0285195165636454,4,13.9133680555556,29.9
4.33333333333333,11.7993308714373,27.0853772912934,1.08258378898752,0.0277860487867112,4,13.9133680555556,29.9
4.36666666666667,11.7993288664187,27.1219163727787,1.10964839146619,0.027064602478664,4,13.9133680555556,29.9
4.4,11.7993268122281,27.1593458638296,1.13600738938883,0.0263589979226395,4,13.9133680555556,29.9
4.43333333333333,11.7993247095299,27.1976426207279,1.1616896018502,0.0256822124613736,4,13.9133680555556,29.9
4.46666666666667,11.7993225590518,27.2367848203672,1.18674082208575,0.0250512202355515,4,13.9133680555556,29.9
4.5,11.7993203616429,27.2767520946078,1.21120080265385,0.024459980568095,4,13.9133680555556,29.9
4.53333333333333,11.7993181183241,27.3175252998851,1.23510298179267,0.0239021791388212,4,13.9133680555556,29.9
4.56666666666667,11.7993158303012,27.35908633197,1.25847599635388,0.0233730145612108,4,13.9133680555556,29.9
4.6,11.799313415117,27.4014179845353,1.28134539362933,0.0228693972754523,4,13.9133680555556,29.9
4.63333333333333,11.7993104654769,27.4445047234506,1.30382189855086,0.022476504921531,4,13.9133680555556,29.9
4.66666666666667,11.7993065301244,27.4883386844693,1.3262472773921,0.0224253788412385,4,13.9133680555556,29.9
4.7,11.7993012217887,27.5329257258096,1.34909228983777,0.0228450124456685,4,13.9133680555556,29.9
4.73333333333333,11.7992942347546,27.5782886618643,1.37288959152916,0.0237973016913866,4,13.9133680555556,29.9
4.76666666666667,11.7992853562368,27.6244679857527,1.39815760123587,0.0252680097067137,4,13.9133680555556,29.9
4.8,11.7992744712672,27.6715208178547,1.42537638113985,0.0272187799039798,4,13.9133680555556,29.9
4.83333333333333,11.7992615612167,27.7195196068905,1.45498416376682,0.0296077826269745,4,13.9133680555556,29.9
4.86666666666667,11.799246696466,27.7685508575072,1.48739091071349,0.0324067469466662,4,13.9133680555556,29.9
4.9,11.7992300239491,27.8187143829034,1.52298197450803,0.035591063794542,4,13.9133680555556,29.9
4.93333333333333,11.7992117505325,27.8701222421006,1.5621031485938,0.0391211740857642,4,13.9133680555556,29.9
4.96666666666667,11.7991921233141,27.9228967955188,1.60502179333582,0.042918644742024,4,13.9133680555556,29.9
5,11.7991714079194,27.9771682404243,1.65194737098423,0.046925577648405,4,13.9133680555556,29.9
5.03333333333333,11.7991498658493,28.0330727191568,1.70302122210867,0.0510738511244457,4,13.9133680555556,29.9
5.06666666666667,11.7991277321732,28.0907500074524,1.75832588204567,0.0553046599369933,4,13.9133680555556,29.9
5.1,11.7991051947278,28.1503417696113,1.81788958826003,0.0595637062143681,4,13.9133680555556,29.9
5.13333333333333,11.7990823762124,28.2119897096451,1.88168954630531,0.0637999580452808,4,13.9133680555556,29.9
5.16666666666667,11.7990593204782,28.2758339823515,1.94965380320811,0.0679642569027956,4,13.9133680555556,29.9
5.2,11.7990359843304,28.3420115582806,2.02166727357547,0.0720134703673601,4,13.9133680555556,29.9
5.23333333333333,11.7990122358217,28.4106552569076,2.09759727037351,0.0759299967980365,4,13.9133680555556,29.9
5.26666666666667,11.7989878599101,28.4818923473043,2.177223878501,0.0796266081274899,4,13.9133680555556,29.9
5.3,11.7989625719446,28.5558409048566,2.26022681301064,0.0830029345096488,4,13.9133680555556,29.9
5.33333333333333,11.798936037859,28.6326071745376,2.34621839030943,0.0859915772987896,4,13.9133680555556,29.9
5.36666666666667,11.7989078995509,28.712283721615,2.43477102691234,0.0885526366029006,4,13.9133680555556,29.9
5.4,11.7988778028983,28.7949486398,2.52544900121592,0.0906779743035893,4,13.9133680555556,29.9
5.43333333333333,11.7988454268225,28.8806657284597,2.61783338597596,0.0923843847600363,4,13.9133680555556,29.9
5.46666666666667,11.7988105143601,28.9694852631801,2.71153235396564,0.0936989679896794,4,13.9133680555556,29.9
5.5,11.798772557293,29.0614449434485,2.80618358906689,0.0946512351012463,4,13.9133680555556,29.9
5.53333333333333,11.7987299113198,29.1565709017868,2.90145475971434,0.0952711706474538,4,13.9133680555556,29.9
5.56666666666667,11.7986810246655,29.2548782275252,2.99700394215929,0.0955491824449513,4,13.9133680555556,29.9
5.6,11.7986248604082,29.3563703395296,3.09249075324473,0.095486811085443,4,13.9133680555556,29.9
5.63333333333333,11.7985608903513,29.4610405214299,3.18764901220229,0.0951582589575577,4,13.9133680555556,29.9
5.66666666666667,11.7984890273735,29.5688742795785,3.28227566638238,0.0946266541800886,4,13.9133680555556,29.9
5.7,11.7984095201394,29.6798512050573,3.37621681092405,0.093941144541672,4,13.9133680555556,29.9
5.73333333333333,11.7983228332473,29.7939464268163,3.46935732018112,0.0931405092570707,4,13.9133680555556,29.9
5.76666666666667,11.7982295315706,29.9111318207437,3.56161669179141,0.0922593716102869,4,13.9133680555556,29.9
5.8,11.7981301814779,30.0313768454969,3.65291641651017,0.0912997247187635,4,13.9133680555556,29.9
5.83333333333333,11.7980252760686,30.1546473702096,3.7431284342466,0.0902120177364298,4,13.9133680555556,29.9
5.86666666666667,11.7979151846847,30.280905588742,3.83216831010127,0.089039875854664,4,13.9133680555556,29.9
5.9,11.7978001244072,30.4101116652802,3.9199975479638,0.0878292378625289,4,13.9133680555556,29.9
5.93333333333333,11.7976801508455,30.5422251477203,4.00661509384324,0.0866175458794469,4,13.9133680555556,29.9
5.96666666666667,11.7975551646037,30.6772059517634,4.0920415462606,0.0854264524173534,4,13.9133680555556,29.9
6,11.7974249300322,30.8150148290901,4.17630452575071,0.0842629794901173,4,13.9133680555556,29.9
6.03333333333333,11.7972891030142,30.9556135144636,4.25943590944965,0.0831313836989382,4,13.9133680555556,29.9
6.06666666666667,11.7971472644833,31.0989648428447,4.34146831900982,0.0820324095601679,4,13.9133680555556,29.9
6.1,11.7969989564557,31.245032644923,4.42242714771187,0.0809588287020535,4,13.9133680555556,29.9
6.13333333333333,11.796843717267,31.3937811336959,4.50229518622668,0.0798680385148103,4,13.9133680555556,29.9
6.16666666666667,11.7966811144518,31.5451713016814,4.58090078125563,0.0786055950289422,4,13.9133680555556,29.9
6.2,11.7965107682197,31.6991603446389,4.65824742007137,0.0773466388157455,4,13.9133680555556,29.9
