Time,x_ego,y_ego,velocity,acceleration,action,x_ped,y_ped
0,11.8,15.9,5,0,1,15.5,29.9
0.0333333333333333,11.8000048819001,16.0666076888338,4.99642263161645,-0.00357736838355205,1,15.5,29.9
0.0666666666666667,11.8000362006903,16.2330926527505,4.99264777568534,-0.0037748559311126,1,15.5,29.9
0.1,11.8001125807522,16.3994492934881,4.98873207322399,-0.00391570246134432,1,15.5,29.9
0.133333333333333,11.8002447525662,16.5656736086322,4.98471601621737,-0.004016057006619,1,15.5,29.9
0.166666666666667,11.8004369174217,16.7317627376655,4.98062846113354,-0.00408755508383596,1,15.5,29.9
0.2,11.8006884224309,16.8977146385451,4.97648996729719,-0.00413849383634624,1,15.5,29.9
0.233333333333333,11.8009953955935,17.0635278576148,4.97231522353669,-0.00417474376050286,1,15.5,29.9
0.266666666666667,11.8013521316058,17.2292013655462,4.96811477337804,-0.00420045015864901,1,15.5,29.9
0.3,11.8017527314282,17.3947344391863,4.96389630320041,-0.00421847017762644,1,15.5,29.9
0.333333333333333,11.8021932532803,17.5601265745858,4.9596653609161,-0.00423094228430809,1,15.5,29.9
0.366666666666667,11.8026698602307,17.7253774263044,4.95542586995753,-0.00423949095857612,1,15.5,29.9
0.4,11.8031785412558,17.8904867634823,4.95118065955214,-0.00424521040538473,1,15.5,29.9
0.433333333333333,11.8037154779902,18.0554544375221,4.94693177680386,-0.0042488827482785,1,15.5,29.9
0.466666666666667,11.8042773732222,18.220280358398,4.94268070841886,-0.00425106838500344,1,15.5,29.9
0.5,11.804861707374,18.384964477286,4.93842853715581,-0.00425217126304833,1,15.5,29.9
0.533333333333333,11.8054668897738,18.5495067739087,4.9341760517158,-0.00425248544000922,1,15.5,29.9
0.566666666666667,11.8060922845622,18.7139072474548,4.92992382424366,-0.0042522274721426,1,15.5,29.9
0.6,11.806738111957,18.8781659102302,4.92567226588564,-0.00425155835801849,1,15.5,29.9
0.633333333333333,11.8074070452996,19.0422827787703,4.92142190876374,-0.00425035712189903,1,15.5,29.9
0.666666666666667,11.8081089101814,19.2062578561702,4.91717316960309,-0.00424873916065227,1,15.5,29.9
0.7,11.8088546753705,19.3700911414642,4.91292610353805,-0.00424706606503733,1,15.5,29.9
0.733333333333333,11.809651926618,19.533782640431,4.90868063439663,-0.00424546914142176,1,15.5,29.9
0.766666666666667,11.8105045562732,19.6973323677925,4.90443665506098,-0.00424397933565235,1,15.5,29.9
0.8,11.8114134487824,19.8607403472054,4.90019405151268,-0.0042426035482972,1,15.5,29.9
0.833333333333333,11.8123778591863,20.0240066087039,4.89595284551326,-0.00424120599942501,1,15.5,29.9
0.866666666666667,11.8133975893358,20.1871311816774,4.89171305625286,-0.00423978926039936,1,15.5,29.9
0.9,11.814471351884,20.3501141010752,4.88747460210458,-0.00423845414828161,1,15.5,29.9
0.933333333333333,11.8155967068714,20.512955408931,4.88323743887564,-0.00423716322893952,1,15.5,29.9
0.966666666666667,11.8167705999735,20.6756551531791,4.87900156066821,-0.00423587820742899,1,15.5,29.9
1,11.8179898132306,20.838213386072,4.87476699343024,-0.00423456723797155,1,15.5,29.9
1.03333333333333,11.819251312282,21.000630162397,4.87053378456619,-0.00423320886404976,1,15.5,29.9
1.06666666666667,11.820552488173,21.1629055377087,4.8663019918997,-0.00423179266648344,1,15.5,29.9
1.1,11.8218913006532,21.3250395667747,4.86207167424462,-0.00423031765508064,1,15.5,29.9
1.13333333333333,11.8232663349787,21.4870323023772,4.85784288462656,-0.00422878961806017,1,15.5,29.9
1.16666666666667,11.824676787031,21.6488837945528,4.85361566625193,-0.00422721837463413,1,15.5,29.9
1.2,11.8261223931141,21.810594090289,4.84939005078014,-0.00422561547178457,1,15.5,29.9
1.23333333333333,11.8276033216065,21.972163233636,4.84516605826485,-0.00422399251529182,1,15.5,29.9
1.26666666666667,11.8291200437765,22.1335912661551,4.84094369816749,-0.00422236009736565,1,15.5,29.9
1.3,11.8306732002821,22.2948782275935,4.83672297098981,-0.00422072717767286,1,15.5,29.9
1.33333333333333,11.8322634779598,22.4560241566656,4.8325038702291,-0.00421910076071708,1,15.5,29.9
1.36666666666667,11.8338915083831,22.6170290918249,4.82828638447547,-0.0042174857536228,1,15.5,29.9
1.4,11.8355577955752,22.7778930719272,4.82407049952538,-0.00421588495009484,1,15.5,29.9
1.43333333333333,11.8372626756709,22.9386161367183,4.81985620038747,-0.00421429913791105,1,15.5,29.9
1.46666666666667,11.8390063068812,23.0991983271094,4.81564347303799,-0.00421272734948186,1,15.5,29.9
1.5,11.8407886844608,23.2596396852441,4.81143230577605,-0.00421116726193294,1,15.5,29.9
1.53333333333333,11.8426096730006,23.4199402543881,4.8072226900598,-0.00420961571624989,1,15.4777777777778,29.9
1.56666666666667,11.8444690475053,23.5801000786947,4.80301462077446,-0.00420806928534478,1,15.4111111111111,29.9
1.6,11.8463665353011,23.7401192029089,4.79880809597528,-0.00420652479917294,1,15.3,29.9
1.63333333333333,11.8483018525338,23.899997672068,4.79460311623351,-0.00420497974177714,1,15.1698412698413,29.9
1.66666666666667,11.850274731384,24.0597355312458,4.79039968376597,-0.00420343246754218,1,15.0460317460317,29.9
1.7,11.8522849366008,24.2193328253671,4.78619780153744,-0.0042018822285268,1,14.9285714285714,29.9
1.73333333333333,11.8543322720811,24.3787895991028,4.78199747249175,-0.0042003290456849,1,14.8174603174603,29.9
1.76666666666667,11.8564165796814,24.5381058968361,4.77779869900891,-0.00419877348284547,1,14.7126984126984,29.9
1.8,11.8585377331212,24.6972817626819,4.77360148261977,-0.00419721638913462,1,14.6142857142857,29.9
1.83333333333333,11.8606956297859,24.8563172405377,4.76940582395337,-0.00419565866640514,1,14.5222222222222,29.9
1.86666666666667,11.862890182651,25.0152123741432,4.76521172285438,-0.00419410109899321,1,14.4365079365079,29.9
1.9,11.8651213136959,25.1739672071352,4.76101917859336,-0.00419254426101823,1,14.3571428571429,29.9
1.93333333333333,11.8673889493105,25.3325817830891,4.75682819009664,-0.00419098849671684,1,14.284126984127,29.9
1.96666666666667,11.8696930175175,25.4910561455473,4.75263875614135,-0.00418943395529325,1,14.2174603174603,29.9
2,11.8720334464422,25.6493903380374,4.74845087548621,-0.00418788065513898,1,14.1571428571429,29.9
2.03333333333333,11.8744101633745,25.8075844040873,4.74426454693348,-0.00418632855272527,1,14.1031746031746,29.9
2.06666666666667,11.8768230939093,25.9656383872402,4.74007976933624,-0.00418477759724301,1,14.0555555555556,29.9
2.1,11.8792721609231,26.1235523310744,4.73589654157525,-0.00418322776098723,1,14.0142857142857,29.9
2.13333333333333,11.8817572834203,26.2813262792236,4.73171486253057,-0.00418167904468181,1,13.9793650793651,29.9
2.16666666666667,11.884278375484,26.4389602753979,4.72753473106652,-0.00418013146405105,1,13.9507936507936,29.9
2.2,11.8868353456315,26.5964543633977,4.72335614603871,-0.0041785850278071,1,13.9285714285714,29.9
2.23333333333333,11.8894275404536,26.7538085949576,4.71917898772048,-0.00417715831822996,1,13.9126984126984,29.9
2.26666666666667,11.8920523889745,26.9110230498209,4.71500319839687,-0.00417578932361717,1,13.9031746031746,29.9
2.3,11.8947059031412,27.0680978306858,4.71082850812725,-0.00417469026961381,1,13.9,29.9
2.33333333333333,11.8973784744143,27.2250331268651,4.70665473434814,-0.00417377377911077,1,13.9,29.9
2.36666666666667,11.9000585138642,27.3818291654359,4.70248188726602,-0.00417284708212406,1,13.9,29.9
2.4,11.9027305736067,27.5384862405315,4.69831000097234,-0.00417188629367438,1,13.9,29.9
2.43333333333333,11.9053767851299,27.6950046924283,4.69413948087733,-0.00417052009501084,1,13.9,29.9
2.46666666666667,11.9079806870225,27.8513848549208,4.68997158507168,-0.00416789580565435,1,13.9,29.9
2.5,11.9105288110829,28.0076270701173,4.68580923510181,-0.00416234996987086,1,13.9,29.9
2.53333333333333,11.9130135426271,28.1637316878963,4.68165616951574,-0.00415306558606954,1,13.9,29.9
2.56666666666667,11.9154345607274,28.3196990599152,4.67751598696343,-0.00414018255230797,1,13.9,29.9
2.6,11.9177972312832,28.4755295666639,4.67339205025809,-0.00412393670533451,1,13.9,29.9
2.63333333333333,11.92011048916,28.6312236503034,4.66928750744415,-0.00410454281394212,1,13.9,29.9
2.66666666666667,11.9223850275765,28.7867818340703,4.66520511061317,-0.00408239683098355,1,13.9,29.9
2.7,11.9246318710673,28.9422047277751,4.66114714258729,-0.0040579680258741,1,13.9,29.9
2.73333333333333,11.9268613275298,29.0974930273759,4.65711558319244,-0.00403155939485522,1,13.9,29.9
2.76666666666667,11.9290828221222,29.2526475061936,4.65311211526414,-0.00400346792830319,1,13.9,29.9
2.8,11.9313057994975,29.4076689880185,4.64913804682428,-0.00397406843985504,1,13.9,29.9
2.83333333333333,11.9335378966027,29.5625583588884,4.6451942478732,-0.0039437989510791,1,13.9,29.9
2.86666666666667,11.9357857793078,29.7173165388775,4.6412811683043,-0.00391307956890685,1,13.9,29.9
2.9,11.9380537626849,29.8719444890504,4.63739887529492,-0.00388229300937226,1,13.9,29.9
2.93333333333333,11.9403449554104,30.0264431830889,4.63354711729634,-0.00385175799858484,1,13.9,29.9
2.96666666666667,11.9426601924148,30.1808136145225,4.62972538574213,-0.00382173155421039,1,13.9,29.9
3,11.9450001516623,30.3350567586537,4.62593299671285,-0.00379238902927526,1,13.9,29.9
3.03333333333333,11.9473660709524,30.4891735570585,4.62216915346571,-0.00376384324714074,1,13.9,29.9
3.06666666666667,11.9497596822243,30.6431649150229,4.61843298822927,-0.00373616523644404,1,13.9,29.9
3.1,11.9521832845794,30.7970316993247,4.61472367073705,-0.00370931749221803,1,13.9,29.9
3.13333333333333,11.9546396841577,30.9507747393822,4.61104032530784,-0.00368334542920579,1,13.9,29.9
3.16666666666667,11.9571320270599,31.1043948253392,4.60738191660013,-0.00365840870771272,1,13.9,29.9
3.2,11.9596637557056,31.2578927024217,4.60374720606482,-0.00363471053530695,1,13.9,29.9
3.23333333333333,11.9622384169195,31.41126906685,4.60013479557135,-0.00361241049346983,1,13.9,29.9
3.26666666666667,11.9648590395589,31.564524573803,4.59654329712506,-0.00359149844629592,1,13.9,29.9
3.3,11.9675260427574,31.7176598781036,4.59297155564968,-0.00357174147538242,1,13.9,29.9
3.33333333333333,11.9702374206339,31.8706756411865,4.58941850789112,-0.00355304775855547,1,13.8991319444444,29.9
3.36666666666667,11.9729895828137,32.0235725184346,4.58588305136456,-0.00353545652656084,1,13.8965277777778,29.9
3.4,11.9757781158404,32.1763511461862,4.58236405356057,-0.00351899780399378,1,13.8921875,29.9
3.43333333333333,11.9785989833396,32.3290121201793,4.57886048620845,-0.00350356735211399,1,13.8861111111111,29.9
3.46666666666667,11.9814504014878,32.4815559642269,4.57537134978694,-0.00348913642151683,1,13.8782986111111,29.9
3.5,11.9843309028054,32.6339831627323,4.57189561327914,-0.00347573650779154,1,13.86875,29.9
3.53333333333333,11.9872389260198,32.786294168902,4.56843224762105,-0.00346336565809846,1,13.8574652777778,29.9
3.56666666666667,11.9901735862725,32.9384903945917,4.56510021125542,-0.00333203636562729,1,13.8444444444444,29.9
3.6,11.9931369136372,33.0905846970499,4.56245156195992,-0.00264864929550157,1,13.8296875,29.9
3.63333333333333,11.9961338674899,33.2426086774641,4.56098858738064,-0.00146297457927336,1,13.8131944444444,29.9
3.66666666666667,11.9991713322019,33.3946074109469,4.56102185531914,3.32679384982271e-05,1,13.7949652777778,29.9
3.7,12.0022573058631,33.5466333364533,4.56268805879067,0.00166620347152779,1,13.775,29.9
3.73333333333333,12.0053995781688,33.6987409331986,4.56597862188953,0.00329056309886244,1,13.7532986111111,29.9
3.76666666666667,12.008604264638,33.850982511387,4.57077702074872,0.00479839885918576,1,13.7298611111111,29.9
3.8,12.0118783928853,34.003405220334,4.57689794747899,0.00612092673027576,1,13.7046875,29.9
3.83333333333333,12.0152261529667,34.1560494739331,4.58412830301054,0.00723035553154272,1,13.6777777777778,29.9
3.86666666666667,12.0186484074141,34.3089491907263,4.59229685889664,0.00816855588610643,1,13.6491319444444,29.9
3.9,12.0221435926704,34.4621331165304,4.60124591851492,0.00894905961827508,1,13.61875,29.9
3.93333333333333,12.0257085751341,34.6156242535217,4.6107893917677,0.00954347325277816,1,13.5866319444444,29.9
3.96666666666667,12.0293394094513,34.7694394187454,4.62074918819281,0.00995979642511813,1,13.5527777777778,29.9
4,12.0330319860595,34.9235906184133,4.6310290399361,0.0102798517432827,1,13.5171875,29.9
4.03333333333333,12.0367825707108,35.0780889161696,4.64166999750727,0.0106409575711748,1,13.4798611111111,29.9
4.06666666666667,12.0405881995903,35.2329485036609,4.65281132807202,0.0111413305647483,1,13.4407986111111,29.9
4.1,12.0444469301477,35.3881900634292,4.66471890150672,0.0119075734346978,1,13.4,29.9
4.13333333333333,12.0483580219645,35.5438458869603,4.67782340177782,0.0131045002711012,1,13.3574652777778,29.9
4.16666666666667,12.0523220454237,35.6999654897258,4.69273376083703,0.0149103590592112,1,13.3131944444444,29.9
4.2,12.0563403439438,35.8566211176038,4.71015704137576,0.0174232805387327,1,13.2671875,29.9
4.23333333333333,12.060412813108,36.0139025446803,4.73036025618266,0.0202032148068936,4,13.2194444444444,29.9
4.26666666666667,12.0645378165925,36.1719037315149,4.75342992187563,0.0230696656929732,4,13.1699652777778,29.9
4.3,12.0687122406334,36.330722469027,4.77949668505789,0.0260667631822606,4,13.11875,29.9
4.33333333333333,12.072929534772,36.490460214052,4.80860566974753,0.0291089846896382,4,13.0657986111111,29.9
4.36666666666667,12.0771782716159,36.6512167211041,4.84062398213943,0.0320183123919069,4,13.0111111111111,29.9
4.4,12.0814435308936,36.8130863996959,4.87536217495568,0.0347381928162465,4,12.9546875,29.9
4.43333333333333,12.0857092831651,36.9761563536033,4.91257013859737,0.0372079636416922,4,12.8965277777778,29.9
4.46666666666667,12.0899624361097,37.1405044011057,4.95194990034373,0.0393797617463596,4,12.8366319444444,29.9
4.5,12.0941961225694,37.3061978089307,4.99318140841327,0.0412315080695365,4,12.775,29.9
4.53333333333333,12.0984109790041,37.473292944689,5.03594384304844,0.0427624346351703,4,12.7116319444444,29.9
4.56666666666667,12.1026138925901,37.6418350656576,5.07989443841528,0.0439505953668418,4,12.6465277777778,29.9
4.6,12.1068177052742,37.8118570719645,5.12463808484352,0.044743646428234,4,12.5796875,29.9
4.63333333333333,12.1110383642591,37.9833768897544,5.16965820991631,0.0450201250727922,4,12.5111111111111,29.9
4.66666666666667,12.1152901913396,38.1563915266052,5.21417451925269,0.0445163093363785,4,12.4407986111111,29.9
4.7,12.1195846790682,38.3308633233375,5.25687494262459,0.0427004233719064,4,12.36875,29.9
4.73333333333333,12.1239312487921,38.5067005415937,5.29561201939143,0.0387370767668402,4,12.2949652777778,29.9
4.76666666666667,12.1283337740202,38.6837127553625,5.32696525727669,0.0313532378852539,4,12.2194444444444,29.9
4.8,12.1327904460936,38.861620456711,5.34940854081166,0.0224432835349697,4,12.1421875,29.9
4.83333333333333,12.1372965116755,39.0401458832735,5.3644970287672,0.0150884879555448,1,12.0631944444444,29.9
4.86666666666667,12.1418465173695,39.2190804823403,5.37430891850539,0.00981188973819247,1,11.9824652777778,29.9
4.9,12.1464340304372,39.3982746565989,5.3803324551172,0.00602353661180999,1,11.9,29.9
4.93333333333333,12.1510490234904,39.5776210888723,5.38363325525251,0.00330080013530587,1,11.8157986111111,29.9
