Time,x_ego,y_ego,velocity,acceleration,action,x_ped,y_ped
0,11.8,8.9,5,0,1,15.5,29.9
0.0333333333333333,11.8,9.06660768884189,4.99642261439338,-0.0035773856066168,1,15.4972222222222,29.9
0.0666666666666667,11.8,9.23309265311448,4.99264756783477,-0.00377504655861216,1,15.4888888888889,29.9
0.1,11.8,9.39944929692399,4.98873130122091,-0.00391626661385835,1,15.475,29.9
0.133333333333333,11.8,9.56567362451385,4.98471426828108,-0.00401703293983147,1,15.4555555555556,29.9
0.166666666666667,11.8,9.7317627870126,4.98062546389497,-0.00408880438611448,1,15.4305555555556,29.9
0.2,11.8,9.89771475756689,4.97648566969706,-0.00413979419790333,1,15.4,29.9
0.233333333333333,11.8,10.063528098494,4.97230978036584,-0.00417588933122204,1,15.3666666666667,29.9
0.266666666666667,11.8,10.2292017943893,4.96810847105553,-0.00420130931030815,1,15.3333333333333,29.9
0.3,11.8,10.3947351325064,4.96388939262275,-0.00421907843277847,1,15.3,29.9
0.333333333333333,11.8,10.5601276170202,4.95965802839236,-0.00423136423039949,1,15.2666666666667,29.9
0.366666666666667,11.8,10.7253789075748,4.95541830829244,-0.00423972009991047,1,15.2333333333333,29.9
0.4,11.8,10.8904887752388,4.95117304903021,-0.00424525926223307,1,15.2,29.9
0.433333333333333,11.8,11.0554570709351,4.94692426953351,-0.00424877949670321,1,15.1666666666667,29.9
0.466666666666667,11.8,11.2202837028143,4.94267341695966,-0.00425085257384605,1,15.1333333333333,29.9
0.5,11.8,11.3849686200364,4.93842152859998,-0.00425188835968093,1,15.1,29.9
0.533333333333333,11.8,11.5495118011469,4.93416934785826,-0.00425218074171951,1,15.0666666666667,29.9
0.566666666666667,11.8,11.7139132457448,4.92991740734792,-0.00425194051033717,1,15.0333333333333,29.9
0.6,11.8,11.8781729685112,4.9256660884612,-0.00425131888672592,1,15,29.9
0.633333333333333,11.7999970143876,12.0422909949261,4.9214156706573,-0.00425041780390156,1,14.9666666666667,29.9
0.666666666666667,11.7999772648708,12.2062673580721,4.91716641780085,-0.00424925285644839,1,14.9333333333333,29.9
0.7,11.7999261462333,12.3701020956416,4.9129186016257,-0.00424781617514558,1,14.9,29.9
0.733333333333333,11.7998315580305,12.5337952468095,4.90867244204223,-0.00424615958346841,1,14.8666666666667,29.9
0.766666666666667,11.7996841226854,12.6973468494999,4.90442807098194,-0.00424437106029796,1,14.8333333333333,29.9
0.8,11.7994769112979,12.8607569385545,4.9001855324489,-0.00424253853303203,1,14.8,29.9
0.833333333333333,11.7992057186113,13.0240255452393,4.89594473286411,-0.00424079958479506,1,14.7666666666667,29.9
0.866666666666667,11.7988705912316,13.1871526990484,4.89170545867794,-0.00423927418617254,1,14.7333333333333,29.9
0.9,11.7984750368385,13.3501384306544,4.88746750525999,-0.00423795341794975,1,14.7,29.9
0.933333333333333,11.7980247044583,13.512982774671,4.8832307357248,-0.00423676953518815,1,14.6666666666667,29.9
0.966666666666667,11.7975262856391,13.6756857714184,4.87899509906467,-0.00423563666013305,1,14.6333333333333,29.9
1,11.796986661098,13.8382474673551,4.87476061838253,-0.00423448068213972,1,14.6,29.9
1.03333333333333,11.7964122746068,14.000667914302,4.87052736561684,-0.00423325276568409,1,14.5666666666667,29.9
1.06666666666667,11.7958086990591,14.1629471678603,4.86629543550707,-0.00423193010977041,1,14.5333333333333,29.9
1.1,11.7951803608575,14.3250852854885,4.86206492530879,-0.00423051019827803,1,14.5,29.9
1.13333333333333,11.7945303982929,14.4870823246466,4.85783592182818,-0.00422900348061628,1,14.4666666666667,29.9
1.16666666666667,11.7938606390407,14.6489383412859,4.85360849476367,-0.0042274270645084,1,14.4333333333333,29.9
1.2,11.7931716860524,14.8106533888398,4.84938269457042,-0.0042258001932467,1,14.4,29.9
1.23333333333333,11.7924633247802,14.9721406841337,4.83994862821331,-0.00943406635711685,1,14.3666666666667,29.9
1.26666666666667,11.7917349088348,15.133197920989,4.82358500579919,-0.0163636224141133,1,14.3333333333333,29.9
1.3,11.7909854173024,15.2936231919816,4.80203712490464,-0.0215478808945546,3,14.3,29.9
1.33333333333333,11.7902135246808,15.4533014687284,4.77877244626801,-0.0232646786366297,3,14.2666666666667,29.9
1.36666666666667,11.7894178408792,15.6122042327744,4.75551411224212,-0.0232583340258845,3,14.2333333333333,29.9
1.4,11.7885973607052,15.7703029936697,4.73054065566794,-0.0249734565741866,3,14.2,29.9
1.43333333333333,11.7877517826378,15.927511518125,4.70210887846679,-0.02843177720115,3,14.1666666666667,29.9
1.46666666666667,11.7868812507515,16.0837723058833,4.67368574164729,-0.0284231368194954,3,14.1333333333333,29.9
1.5,11.78598619166,16.2390856497335,4.64527173619646,-0.0284140054508333,3,14.1,29.9
1.53333333333333,11.7850676444134,16.3933940911482,4.61340118189575,-0.0318705543007134,3,14.0666666666667,29.9
1.56666666666667,11.784126904927,16.5466401936652,4.58154086253861,-0.031860319357139,3,14.0333333333333,29.9
1.6,11.783165661888,16.6987091357513,4.54278091168111,-0.0387599508574947,3,14,29.9
1.63333333333333,11.7821856367011,16.8494861277795,4.50403288815386,-0.0387480235272548,3,13.9666666666667,29.9
1.66666666666667,11.7811881245664,16.9989425163584,4.46355349176036,-0.0404793963935006,3,13.9333333333333,29.9
1.7,11.7801745988024,17.1469922660413,4.41964310616412,-0.0439103855962326,3,13.9,29.9
1.73333333333333,11.779146589456,17.2935206666453,4.37228086075059,-0.0473622454135318,3,13.8666666666667,29.9
1.76666666666667,11.7781052726144,17.4384704442373,4.32493379409769,-0.0473470666528968,3,13.8333333333333,29.9
1.8,11.7770516340727,17.5818134148526,4.27588034811503,-0.049053445982663,3,13.8,29.9
1.83333333333333,11.7759864755186,17.723550117015,4.22856539293959,-0.0473149551754393,3,13.7666666666667,29.9
1.86666666666667,11.774910426599,17.8637098026092,4.18126693202394,-0.0472984609156537,3,13.7333333333333,29.9
1.9,11.7738242651673,18.0022930265318,4.13398511719737,-0.0472818148265697,3,13.7,29.9
1.93333333333333,11.7727287574354,18.1393003478153,4.08672004807815,-0.0472650691192209,3,13.6666666666667,29.9
1.96666666666667,11.7716250113649,18.2746745607982,4.03600575143455,-0.0507142966435978,3,13.6333333333333,29.9
2,11.770513759095,18.4084162381471,3.98877482666063,-0.0472309247739156,3,13.6,29.9
2.03333333333333,11.7693953396222,18.5405837214623,3.94156096601803,-0.047213860642608,3,13.5666666666667,29.9
2.06666666666667,11.768270415407,18.6711775804668,3.89436410709113,-0.0471968589268958,3,13.5333333333333,29.9
2.1,11.7671396132732,18.8001983828002,3.84718419237825,-0.0471799147128857,3,13.5,29.9
2.13333333333333,11.7660033349768,18.9276753961549,3.80174328911264,-0.0454409032656033,3,13.4666666666667,29.9
2.16666666666667,11.7648619615989,19.0536378819677,3.75631898489193,-0.0454243042207088,3,13.4333333333333,29.9
2.2,11.7637162760247,19.178057691362,3.70918900162939,-0.0471299832625443,3,13.4,29.9
2.23333333333333,11.7625668674933,19.3009353777032,3.66379769739854,-0.0453913042308502,3,13.3666666666667,29.9
2.26666666666667,11.761413915115,19.422329258676,3.62016664112641,-0.0436310562721305,3,13.3333333333333,29.9
2.3,11.7602580371892,19.54223987567,3.57480763773321,-0.0453590033931985,3,13.3,29.9
2.33333333333333,11.7591000813587,19.6606387013421,3.52946465098825,-0.0453429867449615,3,13.2666666666667,29.9
2.36666666666667,11.7579404483798,19.7775553382038,3.48588156372862,-0.043583087259631,3,13.2333333333333,29.9
2.4,11.7567795248868,19.8930193829481,3.44231418072397,-0.043567383004647,3,13.2,29.9
2.43333333333333,11.7556174320186,20.0070887640419,3.4022066170259,-0.0401075636980694,3,13.1666666666667,29.9
2.46666666666667,11.7544540009751,20.1198504616338,3.36385798290414,-0.0383486341217654,3,13.1333333333333,29.9
2.5,11.7532894736049,20.2313340342789,3.32552382866865,-0.0383341542354851,3,13.1,29.9
2.53333333333333,11.7521242838544,20.3415399615659,3.28720382994656,-0.0383199987220912,3,13.0666666666667,29.9
2.56666666666667,11.7509588312683,20.4504687134811,3.24889774577389,-0.0383060841726723,3,13.0333333333333,29.9
2.6,11.7497934967554,20.5581207529434,3.21060539496995,-0.0382923508039372,3,13,29.9
2.63333333333333,11.7486286574601,20.6644965376571,3.17232663928641,-0.0382787556835416,3,12.9666666666667,29.9
2.66666666666667,11.747464698609,20.7695965214586,3.13406137140151,-0.0382652678848929,3,12.9333333333333,29.9
2.7,11.7463020210267,20.8734211552784,3.09580950637941,-0.0382518650221066,3,12.9,29.9
2.73333333333333,11.7451413156439,20.9759418230834,3.05582704519206,-0.0399824611873481,3,12.8666666666667,29.9
2.76666666666667,11.7439833010397,21.0771299114002,3.01585808359961,-0.0399689615924461,3,12.8333333333333,29.9
2.8,11.7428287252166,21.1769571737911,2.97418054662381,-0.0416775369758002,3,12.8,29.9
2.83333333333333,11.7416783624438,21.2753953698262,2.93251681732472,-0.0416637292990889,3,12.7666666666667,29.9
2.86666666666667,11.7405327324829,21.3724449665146,2.89086701580667,-0.0416498015180533,3,12.7333333333333,29.9
2.9,11.7393923633009,21.4681064343181,2.84923121975868,-0.0416357960479887,3,12.7,29.9
2.93333333333333,11.7382574941187,21.5624089471224,2.8093316097357,-0.0398996100229847,3,12.6666666666667,29.9
2.96666666666667,11.7371289276434,21.6553242733993,2.76600159366518,-0.043330016070517,3,12.6333333333333,29.9
3,11.7360074536629,21.7468241853262,2.72440790550019,-0.0415936881649883,3,12.6,29.9
3.03333333333333,11.7348932697777,21.8369378605074,2.68282832844402,-0.0415795770561753,3,12.5666666666667,29.9
3.06666666666667,11.733786846606,21.9256657739234,2.64126284260077,-0.0415654858432499,3,12.5333333333333,29.9
3.1,11.7326886345085,22.0130083997599,2.59971142544224,-0.0415514171585243,3,12.5,29.9
3.13333333333333,11.7315987574665,22.0989949124135,2.559896189707,-0.0398152357352437,3,12.4666666666667,29.9
3.16666666666667,11.7305173098081,22.1836544812957,2.52009476663191,-0.0398014230750903,3,12.4333333333333,29.9
3.2,11.7294446604747,22.2669875687219,2.48030702916947,-0.0397877374624365,3,12.4,29.9
3.23333333333333,11.728381469309,22.3489659319153,2.43881074161851,-0.0414962875509612,3,12.3666666666667,29.9
3.26666666666667,11.7273283917072,22.4295613289133,2.39732816934634,-0.0414825722721734,3,12.3333333333333,29.9
3.3,11.7262857731843,22.5087742212491,2.35585935145,-0.0414688178963392,3,12.3,29.9
3.33333333333333,11.7252539631258,22.5866050714762,2.31440430616654,-0.041455045283457,3,12.2666666666667,29.9
3.36666666666667,11.7242336398926,22.6630256416813,2.27124089554633,-0.0431634106202132,3,12.2333333333333,29.9
3.4,11.7232251664866,22.7380364566666,2.22982753834689,-0.0414133571994371,3,12.2,29.9
3.43333333333333,11.7222285504274,22.8116699018944,2.18865063938661,-0.041176898960281,3,12.1666666666667,29.9
3.46666666666667,11.7212440093578,22.8839394876413,2.14805534595964,-0.0405952934269664,3,12.1333333333333,29.9
3.5,11.720271942025,22.9548425106357,2.10672769482915,-0.0413276511304947,3,12.1,29.9
3.53333333333333,11.7193129279437,23.0243602062001,2.0649568351188,-0.0417708597103474,3,12.0666666666667,29.9
3.56666666666667,11.718367476808,23.0924795608569,2.02282357884476,-0.0421332562740377,3,12.0333333333333,29.9
3.6,11.7174357440917,23.1592171108461,1.98204476391521,-0.0407788149295529,3,12,29.9
3.63333333333333,11.7165178817991,23.2245888017008,1.94085327470134,-0.0411914892138725,3,11.9666666666667,29.9
3.66666666666667,11.7156144072244,23.2885788304725,1.89912638513362,-0.041726889567715,3,11.9333333333333,29.9
3.7,11.714725863074,23.3511685496454,1.8568210268242,-0.0423053583094279,3,11.9,29.9
3.73333333333333,11.7138521060065,23.4123950446972,1.81731910164364,-0.0395019251805593,3,11.8666666666667,29.9
3.76666666666667,11.712992646762,23.4723221766988,1.77884167125007,-0.0384774303935704,3,11.8333333333333,29.9
3.8,11.7121473474122,23.5309826001879,1.74129802994108,-0.03754364130899,3,11.8,29.9
3.83333333333333,11.7113160745784,23.5884061815008,1.70461700700304,-0.0366810229380332,3,11.7666666666667,29.9
3.86666666666667,11.7104983273948,23.6446498678907,1.67049265903267,-0.034124347970375,3,11.7333333333333,29.9
3.9,11.7096939538154,23.6997400762598,1.63539927302907,-0.0350933860035934,3,11.7,29.9
3.93333333333333,11.7089031498089,23.7536732104677,1.60106160034678,-0.034337672682295,3,11.6666666666667,29.9
3.96666666666667,11.7081253663287,23.8065033311051,1.56921178011757,-0.0318498202292055,3,11.6333333333333,29.9
4,11.7073604103152,23.8582548574043,1.53633554712544,-0.0328762329921375,3,11.6,29.9
4.03333333333333,11.7066084574634,23.9089220650518,1.50414366002519,-0.032191887100242,3,11.5666666666667,29.9
4.06666666666667,11.7058696891793,23.958498663919,1.47089215160069,-0.0332515084245057,3,11.5333333333333,29.9
4.1,11.7051435512242,24.0070356016872,1.44175710056272,-0.0291350510379706,3,11.5,29.9
4.13333333333333,11.7044291233129,24.0546120013801,1.41325255257483,-0.0285045479878885,3,11.4666666666667,29.9
4.16666666666667,11.7037258568723,24.1012772643636,1.38708178378526,-0.0261707687895674,3,11.4333333333333,29.9
4.2,11.7030332012671,24.1470801347027,1.36150213975642,-0.0255796440288407,3,11.4,29.9
4.23333333333333,11.7023509766341,24.1920400159971,1.33649539481538,-0.0250067449410416,3,11.3666666666667,29.9
4.26666666666667,11.7016786267663,24.2362042487404,1.31375351238077,-0.0227418824346135,3,11.3333333333333,29.9
4.3,11.7010155993305,24.2796190115598,1.2915185357706,-0.0222349766101679,3,11.3,29.9
4.33333333333333,11.700361337256,24.3223297582919,1.27150457554064,-0.0200139602299612,3,11.2666666666667,29.9
4.36666666666667,11.6997152835043,24.3643809657998,1.25193886742586,-0.0195657081147818,3,11.2333333333333,29.9
4.4,11.6990768827705,24.4058158559924,1.23451864497092,-0.0174202224549371,2,11.2,29.9
4.43333333333333,11.6984451930352,24.4467054984088,1.21921690284838,-0.0153017421225405,2,11.1666666666667,29.9
4.46666666666667,11.6978192610669,24.4871203730443,1.20602542397702,-0.0131914788713616,2,11.1333333333333,29.9
4.5,11.697198514277,24.5271012323558,1.19316959288693,-0.0128558310900877,2,11.1,29.9
4.53333333333333,11.6965831632749,24.5666297831568,1.17888244194971,-0.014287150937218,2,11.0666666666667,29.9
4.56666666666667,11.6959730272024,24.6057162216381,1.16663893628048,-0.0122435056692327,2,11.0333333333333,29.9
4.6,11.6953675357735,24.6443993459604,1.15467961378957,-0.0119593224909058,2,11,29.9
4.63333333333333,11.69476652065,24.6826883903075,1.14299077441852,-0.0116888393710572,2,10.9666666666667,29.9
4.66666666666667,11.6941702225961,24.7205631324191,1.12981929524013,-0.0131714791783877,2,10.9333333333333,29.9
4.7,11.6935784963821,24.7580322545218,1.11865242022886,-0.0111668750112637,2,10.9,29.9
4.73333333333333,11.6929908089547,24.7951335399376,1.10774830293532,-0.0109041172935442,2,10.8666666666667,29.9
4.76666666666667,11.6924070370604,24.8318757722752,1.09710814242631,-0.0106401605090094,2,10.8333333333333,29.9
4.8,11.6918270687925,24.8682677428393,1.08673129448154,-0.0103768479447723,2,10.8,29.9
4.83333333333333,11.6912508041038,24.904318197961,1.07661577574506,-0.0101155187364748,2,10.7666666666667,29.9
4.86666666666667,11.6906781545015,24.9400358008949,1.06675863413061,-0.00985714161445506,2,10.7333333333333,29.9
4.9,11.6901090420909,24.9754291043681,1.05715622190724,-0.00960241222337266,2,10.7,29.9
4.93333333333333,11.68954339813,25.010506530979,1.04780439745567,-0.00935182445156313,2,10.6666666666667,29.9
4.96666666666667,11.6889811612519,25.0452763593833,1.03869867464992,-0.0091057228057505,2,10.6333333333333,29.9
5,11.6884222754997,25.0797467147543,1.02983433364756,-0.00886434100236078,2,10.6,29.9
5.03333333333333,11.6878666883048,25.1139255624016,1.02120650310541,-0.00862783054215099,2,10.5666666666667,29.9
5.06666666666667,11.6873143485225,25.1478207037293,1.01281022112571,-0.00839628197969788,2,10.5333333333333,29.9
5.1,11.6867652046182,25.181439773928,1.00464048030825,-0.00816974081746547,2,10.5,29.9
5.13333333333333,11.6862192030786,25.2147902409576,0.996692260918364,-0.00794821938988277,2,10.4666666666667,29.9
5.16666666666667,11.6856750468656,25.2479658115928,0.99414207226893,-0.0025501886494339,2,10.4333333333333,29.9
5.2,11.6851314315249,25.2810593859946,0.991766419810516,-0.00237565245841409,2,10.4,29.9
5.23333333333333,11.684587872152,25.3141048997412,0.991252996087558,-0.000513423722957818,2,10.3666666666667,29.9
5.26666666666667,11.6840438750616,25.3471351424925,0.990845485457829,-0.000407510629728658,2,10.3333333333333,29.9
5.3,11.6834993507382,25.380153168449,0.990516795183867,-0.000328690273961763,2,10.3,29.9
5.33333333333333,11.6829542000303,25.4131612528544,0.990246945390034,-0.000269849793833488,2,10.2666666666667,29.9
5.36666666666667,11.6824083152793,25.4461610965012,0.990021191560126,-0.000225753829908082,2,10.2333333333333,29.9
5.4,11.6818615827624,25.4791539763929,0.989828644226135,-0.000192547333990434,2,10.2,29.9
5.43333333333333,11.6813138860042,25.5121408567485,0.989661255241077,-0.000167388985058636,2,10.1666666666667,29.9
5.46666666666667,11.6807651095681,25.545122470798,0.989513073463802,-0.000148181777274825,2,10.1333333333333,29.9
5.5,11.680215142987,25.5780993810615,0.989379697602301,-0.000133375861501306,2,10.1,29.9
5.53333333333333,11.6796638845421,25.6110720237772,0.989257872791918,-0.00012182481038292,2,10.0666666666667,29.9
5.56666666666667,11.6791112446493,25.6440407416504,0.989145191826442,-0.000112680965475787,2,10.0333333333333,29.9
5.6,11.6785571486643,25.6770058079961,0.989039872845311,-0.000105318981130864,2,10,29.9
5.63333333333333,11.6780015389682,25.7099674445387,0.988940593398692,-9.92794466190272e-05,2,9.96666666666667,29.9
5.66666666666667,11.6774443762501,25.7429258345339,0.988846366680664,-9.42267180277234e-05,2,9.93333333333333,29.9
5.7,11.6768856399497,25.7758811324429,0.988756449788274,-8.99168923906846e-05,2,9.9,29.9
5.73333333333333,11.6763253278729,25.8088334710625,0.988670276557706,-8.61732305672547e-05,2,9.86666666666667,29.9
5.76666666666667,11.6757634550342,25.8417829667783,0.988587409253394,-8.28673043129502e-05,2,9.83333333333334,29.9
5.8,11.6752004838459,25.8747010423871,0.986787550169485,-0.00179985908390823,2,9.8,29.9
5.83333333333333,11.6746368905831,25.9075593196064,0.985002438914094,-0.00178511125539127,2,9.76666666666667,29.9
5.86666666666667,11.6740740382042,25.9402720366298,0.978059073189475,-0.00694336572461929,2,9.73333333333333,29.9
5.9,11.6735132998804,25.9727543039391,0.971181528073008,-0.00687754511646677,2,9.7,29.9
5.93333333333333,11.6729547462391,26.0050088617172,0.964400696515414,-0.00678083155759412,2,9.66666666666667,29.9
5.96666666666667,11.6723988941452,26.0370102731893,0.955996454217073,-0.00840424229834091,2,9.63333333333333,29.9
6,11.6718467009864,26.068705234485,0.946017692427902,-0.00997876178917079,2,9.6,29.9
6.03333333333333,11.6712991194705,26.1000417798668,0.934495541930681,-0.0115221504972216,2,9.56666666666667,29.9
6.06666666666667,11.670756658699,26.1309977112141,0.923183815295711,-0.0113117266349696,2,9.53333333333333,29.9
6.1,11.6702193792177,26.1615804610779,0.912105923404162,-0.0110778918915491,2,9.5,29.9
6.13333333333333,11.669688221656,26.1917403770036,0.897815290574967,-0.014290632829195,2,9.46666666666667,29.9
6.16666666666667,11.6691636717746,26.2214571682364,0.885515394711158,-0.0122998958638086,2,9.43333333333333,29.9
6.2,11.6686448649177,26.2507974126838,0.875217171495976,-0.0102982232151823,2,9.4,29.9
6.23333333333333,11.6681322684195,26.2797407385454,0.861696073979636,-0.0135210975163398,2,9.36666666666667,29.9
6.26666666666667,11.6676258886755,26.3082951923953,0.85188044315249,-0.00981563082714665,2,9.33333333333333,29.9
6.3,11.6671252695388,26.3364972630335,0.840548344428996,-0.0113320987234936,2,9.3,29.9
6.33333333333333,11.6666308353347,26.3643253528481,0.829437606260306,-0.0111107381686901,2,9.26666666666667,29.9
6.36666666666667,11.6661425357877,26.3917867719437,0.818544138024068,-0.0108934682362379,2,9.23333333333333,29.9
6.4,11.6656602991471,26.4188886949075,0.807863956272137,-0.010680181751931,2,9.2,29.9
6.43333333333333,11.6651835754063,26.445667213022,0.799135481934516,-0.00872847433762136,2,9.16666666666667,29.9
