Time,x_ego,y_ego,velocity,acceleration,action,x_ped,y_ped
0,11.8,15.9,5,0,1,15.5,29.9
0.0333333333333333,11.8,16.0666076888419,4.99642261439338,-0.0035773856066168,1,15.5,29.9
0.0666666666666667,11.8,16.2330926531145,4.99264756783477,-0.00377504655861216,1,15.5,29.9
0.1,11.8000066954914,16.3994492969088,4.98873133367229,-0.00391623416248432,1,15.5,29.9
0.133333333333333,11.8000496523556,16.565673623829,4.98471466004811,-0.00401667362417601,1,15.5,29.9
0.166666666666667,11.8001544234061,16.7317627805476,4.98062691949338,-0.00408774055472794,1,15.5,29.9
0.2,11.8003357358558,16.8977147276795,4.97648896641785,-0.00413795307553233,1,15.5,29.9
0.233333333333333,11.8005993575764,17.0635280056176,4.97231543488462,-0.00417353153323052,1,15.5,29.9
0.266666666666667,11.8009443911461,17.229201570357,4.96811658060887,-0.00419885427574851,1,15.5,29.9
0.3,11.8013709202278,17.3947346751864,4.96390062153769,-0.00421595907118366,1,15.5,29.9
0.333333333333333,11.8018961769147,17.5601267703939,4.95967393443877,-0.00422668709892093,1,15.5,29.9
0.366666666666667,11.8025378061298,17.7253774405887,4.95544036598431,-0.00423356845446143,1,15.5,29.9
0.4,11.8033060477481,17.8904863677052,4.95120211459912,-0.00423825138518552,1,15.5,29.9
0.433333333333333,11.8042022195038,18.0554533108626,4.94696025265646,-0.00424186194266429,1,15.5,29.9
0.466666666666667,11.8052206999843,18.2202780949428,4.94271536066367,-0.00424489199278355,1,15.5,29.9
0.5,11.8063515966774,18.3849606029297,4.93846790072782,-0.00424745993585507,1,15.5,29.9
0.533333333333333,11.8075830721437,18.5495007687613,4.93421840873623,-0.00424949199158586,1,15.5,29.9
0.566666666666667,11.80890315202,18.7138985688807,4.92996753013017,-0.00425087860606332,1,15.5,29.9
0.6,11.8103009698185,18.8781540123787,4.92571596522042,-0.00425156490974832,1,15.5,29.9
0.633333333333333,11.8117674970227,19.0422671306286,4.92146438905749,-0.00425157616292715,1,15.5,29.9
0.666666666666667,11.8132958589812,19.2062379675807,4.91721338751229,-0.00425100154520308,1,15.5,29.9
0.7,11.81488135267,19.370066571641,4.91296342496057,-0.0042499625517145,1,15.5,29.9
0.733333333333333,11.8165206643658,19.5337529932395,4.90871462370822,-0.00424880125235561,1,15.5,29.9
0.766666666666667,11.8182101125702,19.6972972915071,4.90446712504704,-0.0042474986611829,1,15.5,29.9
0.8,11.8199471694653,19.8606995236889,4.90022104221242,-0.00424608283461314,1,15.5,29.9
0.833333333333333,11.8217293293328,20.0239597504143,4.89597649555932,-0.00424454665310048,1,15.5,29.9
0.866666666666667,11.8235552921056,20.1870780264803,4.89173354592123,-0.00424294963809313,1,15.5,29.9
0.9,11.8254235420439,20.3500544097842,4.88749225773841,-0.00424128818281488,1,15.5,29.9
0.933333333333333,11.8273341108547,20.5128889471228,4.88325283015947,-0.00423942757894924,1,15.5,29.9
0.966666666666667,11.8292885752832,20.6755816714827,4.87901535565968,-0.0042374744997824,1,15.5,29.9
1,11.831289376393,20.838132605539,4.87477984719693,-0.00423550846275145,1,15.5,29.9
1.03333333333333,11.8333392408089,21.0005417656629,4.87054626578024,-0.00423358141669361,1,15.5,29.9
1.06666666666667,11.8354407542855,21.1628091656226,4.86631454372728,-0.00423172205295508,1,15.5,29.9
1.1,11.8375960983771,21.3249348194887,4.86208460252727,-0.00422994120001707,1,15.5,29.9
1.13333333333333,11.8398069311051,21.486918743575,4.85785636566363,-0.00422823686364016,1,15.5,29.9
1.16666666666667,11.8420743752501,21.6487609574887,4.85362976692268,-0.00422659874094311,1,15.5,29.9
1.2,11.8443990730092,21.8104614845052,4.84940475463869,-0.00422501228399241,1,15.5,29.9
1.23333333333333,11.84678127055,21.9720203515133,4.84518129248378,-0.00422346215491132,1,15.5,29.9
1.26666666666667,11.8492209064722,22.1334375887448,4.84095935774625,-0.00422193473752497,1,15.5,29.9
1.3,11.8517176901987,22.2947132294168,4.83673893828057,-0.0042204194656863,1,15.5,29.9
1.33333333333333,11.8542711665493,22.4558473093421,4.83252002926678,-0.00421890901378763,1,15.5,29.9
1.36666666666667,11.8568807692382,22.6168398664983,4.82830263058896,-0.00421739867782378,1,15.5,29.9
1.4,11.8595453003665,22.777690948,4.82408657231548,-0.00421605827347893,1,15.5,29.9
1.43333333333333,11.8622615959699,22.9384006291186,4.81987177750114,-0.00421479481434162,1,15.5,29.9
1.46666666666667,11.8650268447113,23.0989689844299,4.81565838101363,-0.00421339648750951,1,15.5,29.9
1.5,11.8678386220939,23.2593960865644,4.81144631924432,-0.00421206176930333,1,15.5,29.9
1.53333333333333,11.8706927306786,23.4196820367659,4.80723542531656,-0.00421089392776164,1,15.4916666666667,29.9
1.56666666666667,11.8735834055718,23.5798269645468,4.80302565683148,-0.00420976848508037,1,15.4666666666667,29.9
1.6,11.8765047608776,23.7398310078771,4.79881721976357,-0.00420843706790919,1,15.425,29.9
1.63333333333333,11.8794533445516,23.8996942732879,4.7946104172986,-0.00420680246496907,1,15.3752276867031,29.9
1.66666666666667,11.882428222794,24.0594168304369,4.79040543226882,-0.0042049850297774,1,15.3259107468124,29.9
1.7,11.8854303128486,24.2189987190272,4.7862023476728,-0.00420308459602747,1,15.2770491803279,29.9
1.73333333333333,11.888461726479,24.3784399570563,4.78200117692918,-0.0042011707436167,1,15.2286429872495,29.9
1.76666666666667,11.8915252011707,24.5377405488922,4.77780189167854,-0.00419928525064162,1,15.1806921675774,29.9
1.8,11.8946236540746,24.6969004922562,4.77360444235043,-0.00419744932811383,1,15.1331967213115,29.9
1.83333333333333,11.8977598617651,24.8559197837383,4.76940877137224,-0.00419567097818963,1,15.0861566484517,29.9
1.86666666666667,11.9009362497139,25.0147984228644,4.76521482077753,-0.00419395059471039,1,15.0395719489982,29.9
1.9,11.9041547680963,25.1735364149238,4.7610225361735,-0.00419228460402454,1,14.9934426229508,29.9
1.93333333333333,11.9074168318896,25.3321337728013,4.75683186861124,-0.00419066756226538,1,14.9477686703097,29.9
1.96666666666667,11.9107233089685,25.4905905179942,4.7526427754337,-0.00418909317753702,1,14.9025500910747,29.9
2,11.9140745461926,25.648906680905,4.74845522079679,-0.00418755463691056,1,14.8577868852459,29.9
2.03333333333333,11.9174704276689,25.8070823004455,4.74426917622949,-0.00418604456729454,1,14.8134790528233,29.9
2.06666666666667,11.9209104604353,25.9651174229838,4.74008462129016,-0.00418455493933578,1,14.7696265938069,29.9
2.1,11.9243932936143,26.1230121120586,4.7359013994701,-0.00418322182006126,1,14.7262295081967,29.9
2.13333333333333,11.9279148180678,26.2807664866672,4.7317192944561,-0.00418210501400118,1,14.6832877959927,29.9
2.16666666666667,11.9314686456417,26.4383807153816,4.7275382234273,-0.00418107102879173,1,14.6408014571949,29.9
2.2,11.9350466763719,26.595855007712,4.72335808709218,-0.00418013633512526,1,14.5987704918033,29.9
2.23333333333333,11.9386379189374,26.753189639751,4.71917882709503,-0.00417925999714885,1,14.5571948998179,29.9
2.26666666666667,11.9422293581263,26.9103849386788,4.71500058559556,-0.00417824149946711,1,14.5160746812386,29.9
2.3,11.9458079886697,27.0674412407405,4.71082373866909,-0.00417684692647491,1,14.4754098360656,29.9
2.33333333333333,11.9493638203562,27.2243588255669,4.70664867893602,-0.00417505973306387,1,14.4352003642987,29.9
2.36666666666667,11.9528906801943,27.3811378941732,4.70247568854523,-0.00417299039079388,1,14.3954462659381,29.9
2.4,11.9563876411316,27.5377785345289,4.69830487272312,-0.00417081582210699,1,14.3561475409836,29.9
2.43333333333333,11.959858059529,27.6942807391566,4.69413614873649,-0.00416872398662971,1,14.3173041894353,29.9
2.46666666666667,11.9633074330656,27.8506444502492,4.68996933374048,-0.00416681499601257,1,14.2789162112933,29.9
2.5,11.9667406393282,28.0068696196132,4.685804291114,-0.0041650426264761,1,14.2409836065574,29.9
2.53333333333333,11.9701626532659,28.1629561947158,4.68164092525432,-0.00416336585968136,1,14.2035063752277,29.9
2.56666666666667,11.9735759095658,28.3189041760638,4.67747913768565,-0.00416178756867414,1,14.1664845173042,29.9
2.6,11.976978498621,28.4747136568927,4.67331889198737,-0.004160245698281,1,14.1299180327869,29.9
2.63333333333333,11.980366738872,28.6303847686218,4.66916020421543,-0.0041586877719384,1,14.0938069216758,29.9
2.66666666666667,11.9837355897477,28.7859176720097,4.66500310124059,-0.00415710297484306,1,14.0581511839709,29.9
2.7,11.9870771605388,28.9413125974846,4.66084859289704,-0.00415450834354658,1,14.0229508196721,29.9
2.73333333333333,11.990380696956,29.0965699222833,4.65670115660173,-0.00414743629530712,1,13.9882058287796,29.9
2.76666666666667,11.9936322775539,29.2516902789026,4.65256784211547,-0.00413331448625787,1,13.9539162112933,29.9
2.8,11.9968179025702,29.4066745437052,4.64845662567691,-0.00411121643856838,1,13.9200819672131,29.9
2.83333333333333,11.9999248000603,29.5615238131068,4.64437509379011,-0.00408153188679528,1,13.9200819672131,29.9
2.86666666666667,12.0029423834781,29.716239357241,4.64032963774446,-0.00404545604565154,1,13.9200819672131,29.9
2.9,12.0058648944601,29.8708225236927,4.63632503020126,-0.00400460754319809,1,13.9200819672131,29.9
2.93333333333333,12.0086930824563,30.0252746628523,4.63236446791095,-0.00396056229031316,1,13.9200819672131,29.9
2.96666666666667,12.0114328582278,30.1795971178944,4.62844980063853,-0.00391466727241685,1,13.9200819672131,29.9
3,12.014093355755,30.3337912309484,4.62458195905133,-0.00386784158720221,1,13.9200819672131,29.9
3.03333333333333,12.0166852292808,30.4878583537108,4.62076135221983,-0.00382060683150165,1,13.9200819672131,29.9
3.06666666666667,12.0192192733497,30.6417998550741,4.61698790086887,-0.00377345135095464,1,13.9200819672131,29.9
3.1,12.0217053892742,30.7956171172494,4.61326090834385,-0.00372699252502162,1,13.9200819672131,29.9
3.13333333333333,12.0241518827309,30.9493115232743,4.60957908589932,-0.00368182244453141,1,13.9200819672131,29.9
3.16666666666667,12.0265650585302,31.1028844429276,4.60594069299162,-0.00363839290769619,1,13.9200819672131,29.9
3.2,12.0289490722315,31.2563372174105,4.60234350137448,-0.00359719161714356,1,13.9200819672131,29.9
3.23333333333333,12.0313065685955,31.4096711289019,4.59878463938293,-0.00355886199154565,1,13.9200819672131,29.9
3.26666666666667,12.0336408705856,31.56288776249,4.59535986167311,-0.00342477770982352,1,13.9200819672131,29.9
3.3,12.0359563782635,31.7160122307276,4.59367294733358,-0.00168691433952706,1,13.9200819672131,29.9
3.33333333333333,12.0382596878013,31.8691477032624,4.59646874960366,0.00279580227007514,1,13.9200819672131,29.9
3.36666666666667,12.0405611829727,32.0224796426188,4.60553062451366,0.0090618749100031,1,13.9200819672131,29.9
3.4,12.0428734670371,32.1762149951816,4.62056781185189,0.0150371873382271,1,13.9200819672131,29.9
3.43333333333333,12.0452091308723,32.3305393888211,4.64071898977716,0.0201511779252694,4,13.9200819672131,29.9
3.46666666666667,12.0475784508546,32.4856051035794,4.6648905915025,0.0241716017253397,4,13.9200819672131,29.9
3.5,12.0499906078837,32.6415287682747,4.69207741700623,0.027186825503736,4,13.9200819672131,29.9
3.53333333333333,12.0524515954437,32.7983966169637,4.7214578630492,0.0293804460429641,4,13.9200819672131,29.9
3.56666666666667,12.0549622669681,32.9562701282245,4.7523538314418,0.0308959683925982,4,13.9200819672131,29.9
3.6,12.0575193140819,33.1151904971318,4.78423165390835,0.0318778224665515,4,13.9200819672131,29.9
3.63333333333333,12.0601168276342,33.2751839397173,4.81671875945153,0.0324871055431819,4,13.9200819672131,29.9
3.66666666666667,12.0627476275,33.4362664297377,4.84956530258632,0.0328465431347906,4,13.9200819672131,29.9
3.7,12.0654042947741,33.5984471649909,4.88260900537326,0.0330437027869381,4,13.9200819672131,29.9
3.73333333333333,12.0680799139607,33.7617309979857,4.91574793905422,0.0331389336809584,4,13.9200819672131,29.9
3.76666666666667,12.070768563838,33.9261200868583,4.94892052511646,0.0331725860622472,4,13.9200819672131,29.9
3.8,12.073465603402,34.091614984658,4.98209138348237,0.0331708583659047,4,13.9200819672131,29.9
3.83333333333333,12.0761677929673,34.2582153067479,5.01523680603094,0.0331454225485679,4,13.9200819672131,29.9
3.86666666666667,12.0788732697142,34.4259194120355,5.04829644494148,0.0330596389105455,4,13.9200819672131,29.9
3.9,12.0815813890309,34.5947224556766,5.08114135154375,0.0328449066022669,4,13.9200819672131,29.9
3.93333333333333,12.0842924844265,34.76461477472,5.11362525072484,0.0324838991810923,4,13.9200819672131,29.9
3.96666666666667,12.0870075988095,34.9355823613611,5.14563242966834,0.0320071789435019,4,13.9200819672131,29.9
4,12.0897281610946,35.1076059890285,5.17692724393488,0.0312948142665332,4,13.9200819672131,29.9
4.03333333333333,12.0924555949825,35.280656037499,5.20715857171314,0.0302313277782655,4,13.9200819672131,29.9
4.06666666666667,12.0951910280347,35.4546912385426,5.23598214893565,0.0288235772225098,4,13.9200819672131,29.9
4.1,12.0979351031262,35.629659747969,5.2631201207905,0.0271379718548515,4,13.9200819672131,29.9
4.13333333333333,12.100687896088,35.805501720845,5.28835393683207,0.0252338160415704,4,13.9200819672131,29.9
4.16666666666667,12.1034488775976,35.9821493102745,5.31139926709569,0.0230453302636153,4,13.9200819672131,29.9
4.2,12.1062168863344,36.1595226051908,5.33181180320901,0.0204125361133256,4,13.9200819672131,29.9
4.23333333333333,12.1089901506204,36.3375250598166,5.34905882410436,0.0172470208953479,1,13.9200819672131,29.9
4.26666666666667,12.111766389524,36.5160419780393,5.36258015496921,0.0135213308648501,1,13.9200819672131,29.9
4.3,12.1145422635223,36.6949393495257,5.37184848379617,0.00926832882696171,1,13.9200819672131,29.9
4.33333333333333,12.1173121988288,36.8740821784521,5.37749926214125,0.00565077834507122,1,13.9200819672131,29.9
4.36666666666667,12.120071658558,37.0533678568764,5.38055165113897,0.00305238899772231,1,13.9200819672131,29.9
4.4,12.1228177682416,37.2327226531145,5.38173577940376,0.00118412826478753,1,13.9200819672131,29.9
4.43333333333333,12.1255489788316,37.4120934984739,5.38157393737367,-0.000161842030086845,1,13.9200819672131,29.9
4.46666666666667,12.1282647116045,37.5914421019395,5.38043954807179,-0.00113438930188359,1,13.9200819672131,29.9
4.5,12.1309650331734,37.7707407352981,5.37859937901704,-0.00184016905474937,1,13.9200819672131,29.9
4.53333333333333,12.1336503896438,37.9499692133942,5.37624375889462,-0.00235562012241619,1,13.9200819672131,29.9
4.56666666666667,12.1363214100367,38.1291127294377,5.37350820506339,-0.00273555383122837,1,13.9200819672131,29.9
4.6,12.1389787743388,38.3081603020101,5.37048889772284,-0.00301930734055134,1,13.9200819672131,29.9
4.63333333333333,12.1416231327971,38.4871036594446,5.36725373832968,-0.00323515939316277,1,13.9200819672131,29.9
4.66666666666667,12.1442550603575,38.6659364367998,5.36385025490691,-0.00340348342276542,1,13.9200819672131,29.9
4.7,12.1468750320687,38.8446535963288,5.36031124544527,-0.00353900946164032,1,13.9200819672131,29.9
4.73333333333333,12.149483409755,39.0232510072476,5.35665878857565,-0.00365245686962634,1,13.9200819672131,29.9
4.76666666666667,12.152080435252,39.2017251385195,5.35290708160424,-0.00375170697140437,1,13.9200819672131,29.9
4.8,12.1546662294133,39.3800728313612,5.34906443281557,-0.00384264878867047,1,13.9200819672131,29.9
4.83333333333333,12.1572407981063,39.5582911272518,5.34513463517951,-0.00392979763605616,1,13.9200819672131,29.9
