Time,x_ego,y_ego,velocity,acceleration,action,x_ped,y_ped
0,11.8,8.9,7,0,1,15.5,29.9
0.0333333333333333,11.7999991556326,9.13327037939405,6.9961557798823,-0.00384422011770269,1,15.4972222222222,29.9
0.0666666666666667,11.7999938724217,9.36640659880093,6.99196947498367,-0.00418630489862348,1,15.4888888888889,29.9
0.1,11.799981290911,9.5994007551861,6.98769500047537,-0.00427447450830609,1,15.475,29.9
0.133333333333333,11.799959928311,9.83225378487076,6.98349768237817,-0.0041973180971997,1,15.4555555555556,29.9
0.166666666666667,11.7999292675115,10.064967878987,6.9793558991536,-0.00414178322456493,1,15.4305555555556,29.9
0.2,11.7998893888109,10.2975446157421,6.97525415530547,-0.00410174384813455,1,15.4,29.9
0.233333333333333,11.7998406878021,10.5299851341457,6.97118134647772,-0.00407280882774508,1,15.3666666666667,29.9
0.266666666666667,11.7997836887301,10.76229025851,6.96712951555286,-0.00405183092486805,1,15.3333333333333,29.9
0.3,11.7997189398368,10.9944605876619,6.9630929607827,-0.00403655477015707,1,15.3,29.9
0.333333333333333,11.7996469661865,11.2264965588621,6.95906759649829,-0.00402536428440392,1,15.2666666666667,29.9
0.366666666666667,11.7995682542707,11.4583984935997,6.95505049501719,-0.00401710148110634,1,15.2333333333333,29.9
0.4,11.7994832480002,11.6901666304015,6.95103955844974,-0.00401093656744589,1,15.2,29.9
0.433333333333333,11.7993923439172,11.9218011483377,6.94703328355868,-0.00400627489105787,1,15.1666666666667,29.9
0.466666666666667,11.7992958815275,12.1533021838602,6.94303059324841,-0.00400269031027456,1,15.1333333333333,29.9
0.5,11.7991941305593,12.3846698428662,6.93903071576646,-0.00399987748194697,1,15.1,29.9
0.533333333333333,11.7990872798548,12.6159042093404,6.93503309808947,-0.00399761767699491,1,15.0666666666667,29.9
0.566666666666667,11.7989754326791,12.8470053515472,6.93103734382374,-0.00399575426572962,1,15.0333333333333,29.9
0.6,11.7988586113389,13.0779733264704,6.92704316870383,-0.00399417511991107,1,15,29.9
0.633333333333333,11.7987367712691,13.3088081829978,6.92305036873156,-0.00399279997226998,1,14.9666666666667,29.9
0.666666666666667,11.7986098222063,13.5395099642075,6.91905879739163,-0.00399157133992745,1,14.9333333333333,29.9
0.7,11.7984776524496,13.7700787090112,6.91506834937421,-0.00399044801741599,1,14.9,29.9
0.733333333333333,11.7983401518047,14.0005144533354,6.91107894894945,-0.0039894004247687,1,14.8666666666667,29.9
0.766666666666667,11.7981972295258,14.2308172309702,6.90709054165695,-0.00398840729249095,1,14.8333333333333,29.9
0.8,11.7980488250494,14.4609870741784,6.90310308835145,-0.00398745330550732,1,14.8,29.9
0.833333333333333,11.7978949110564,14.6910240141309,6.89911656092095,-0.00398652743049688,1,14.7666666666667,29.9
0.866666666666667,11.7977354899653,14.9209280812169,6.89513093919432,-0.00398562172662675,1,14.7333333333333,29.9
0.9,11.7975705860071,15.1506993052636,6.89114620869842,-0.00398473049590287,1,14.7,29.9
0.933333333333333,11.7974002354391,15.3803377156906,6.88716235902748,-0.00398384967094501,1,14.6666666666667,29.9
0.966666666666667,11.7972244772446,15.6098433416198,6.88317938265898,-0.00398297636849332,1,14.6333333333333,29.9
1,11.7970433460193,15.8392162119523,6.87919727409937,-0.00398210855961612,1,14.6,29.9
1.03333333333333,11.7968568678889,16.0684563554241,6.87521602927541,-0.0039812448239589,1,14.5666666666667,29.9
1.06666666666667,11.7966650594643,16.2975638006468,6.87123564510873,-0.00398038416667834,1,14.5333333333333,29.9
1.1,11.7964679292076,16.5265385761377,6.86725611922461,-0.0039795258841151,1,14.5,29.9
1.13333333333333,11.7962654802294,16.7553807103427,6.86327744975651,-0.00397866946810588,1,14.4666666666667,29.9
1.16666666666667,11.796057713487,16.9840902316535,6.85929963521556,-0.00397781454095103,1,14.4333333333333,29.9
1.2,11.7958446305414,17.2126671684206,6.85532267440179,-0.00397696081377052,1,14.4,29.9
1.23333333333333,11.7956262353516,17.4411115489628,6.85134656634014,-0.00397610806164383,1,14.3666666666667,29.9
1.26666666666667,11.7954025349479,17.6694234015729,6.84737131023052,-0.00397525610962113,1,14.3333333333333,29.9
1.3,11.7951735391232,17.8976027545226,6.84339690540567,-0.00397440482484868,1,14.3,29.9
1.33333333333333,11.7949392594808,18.1256496360638,6.83942335129446,-0.00397355411121136,1,14.2666666666667,29.9
1.36666666666667,11.7946997082379,18.3535640744306,6.83545064739014,-0.00397270390432514,1,14.2333333333333,29.9
1.4,11.7944548971447,18.5813460978395,6.83147879322426,-0.00397185416587931,1,14.2,29.9
1.43333333333333,11.7942048367602,18.8089957344897,6.82750778834708,-0.00397100487717772,1,14.1666666666667,29.9
1.46666666666667,11.7939495361804,19.036513012564,6.82353763231461,-0.00397015603247119,1,14.1333333333333,29.9
1.5,11.7936890031841,19.2638979602289,6.81956832468183,-0.00396930763277492,1,14.1,29.9
1.53333333333333,11.7934233034759,19.4910924744532,6.81211206069053,-0.00745626399130561,1,14.0666666666667,29.9
1.56666666666667,11.7931527736817,19.7177790514597,6.78909277546904,-0.0230192852214843,3,14.0333333333333,29.9
1.6,11.7928778590651,19.9435541307582,6.75742280579527,-0.0316699696737697,3,14,29.9
1.63333333333333,11.7925987562509,20.1682736196678,6.72575781548276,-0.0316649903125121,3,13.9666666666667,29.9
1.66666666666667,11.7923155234768,20.3919376923738,6.69409829848815,-0.0316595169946075,3,13.9333333333333,29.9
1.7,11.7920283918282,20.6144022986387,6.6537904851493,-0.0403078133388544,3,13.9,29.9
1.73333333333333,11.7917377391994,20.8354082489009,6.60657964794821,-0.0472108372010878,3,13.8666666666667,29.9
1.76666666666667,11.7914439664994,21.0546963960277,6.55072313688863,-0.0558565110595781,3,13.8333333333333,29.9
1.8,11.7911474972403,21.2720076396292,6.48796636675854,-0.0627567701300968,3,13.8,29.9
1.83333333333333,11.7908487786856,21.487082925624,6.41656676876881,-0.0713995979897248,3,13.7666666666667,29.9
1.86666666666667,11.7905482453063,21.6996919512329,6.33999189907707,-0.0765748696917443,3,13.7333333333333,29.9
1.9,11.7902462075689,21.9097199925444,6.26170889047538,-0.0782830086016864,3,13.7,29.9
1.93333333333333,11.7899421573743,22.1171388230526,6.18344046975001,-0.078268420725367,3,13.6666666666667,29.9
1.96666666666667,11.7896332521979,22.3218911627317,6.10172089115551,-0.0817195785945088,3,13.6333333333333,29.9
2,11.7893174727286,22.5237468088439,6.0096404850853,-0.092080406070207,3,13.6,29.9
2.03333333333333,11.7889940515271,22.7224468953954,5.91238878958094,-0.097251695504359,3,13.5666666666667,29.9
2.06666666666667,11.7886628633242,22.9179342374785,5.8168769672613,-0.0955118223196374,3,13.5333333333333,29.9
2.1,11.7883242432507,23.1102668375865,5.7231051023844,-0.0937718648769064,3,13.5,29.9
2.13333333333333,11.7879788581859,23.2995317651945,5.63281705769666,-0.0902880446877372,3,13.4666666666667,29.9
2.16666666666667,11.7876276136973,23.4857873798193,5.5425464675847,-0.0902705901119587,3,13.4333333333333,29.9
2.2,11.7872716729911,23.6689764989247,5.44882727262983,-0.0937191949548666,3,13.4,29.9
2.23333333333333,11.7869123550269,23.8489554743821,5.3499377161206,-0.0988895565092376,3,13.3666666666667,29.9
2.26666666666667,11.7865510591189,24.025523267628,5.24415627245855,-0.105781443662043,3,13.3333333333333,29.9
2.3,11.7861893468446,24.1983633262708,5.12627378766184,-0.117882484796715,3,13.3,29.9
2.33333333333333,11.7858287872011,24.3671304341897,4.99977949595522,-0.126494291706616,3,13.2666666666667,29.9
2.36666666666667,11.7854707435483,24.5315658873962,4.86637484614137,-0.133404649813847,3,13.2333333333333,29.9
2.4,11.7851164505981,24.691439719913,4.72608258823151,-0.140292257909861,3,13.2,29.9
2.43333333333333,11.7847669438558,24.8465797669616,4.5823479126707,-0.143734675560816,3,13.1666666666667,29.9
2.46666666666667,11.7844231606898,24.9968128841368,4.43163953087188,-0.150708381798818,3,13.1333333333333,29.9
2.5,11.7840858382329,25.1420203947586,4.28082054727126,-0.150818983600622,3,13.1,29.9
2.53333333333333,11.7837554094081,25.2821994333017,4.12993765605504,-0.150882891216218,3,13.0666666666667,29.9
2.56666666666667,11.7834321260999,25.4174058596989,3.98246847061452,-0.147469185440523,3,13.0333333333333,29.9
2.6,11.7831160822228,25.5477542359552,3.83845809883575,-0.144010371778767,3,13,29.9
2.63333333333333,11.782807529143,25.6732736698441,3.69273459837813,-0.145723500457623,3,12.9666666666667,29.9
2.66666666666667,11.7825070284754,25.7938494975874,3.54184379708832,-0.150890801289802,3,12.9333333333333,29.9
2.7,11.7822152445386,25.9093383384059,3.38751685399303,-0.154326943095292,3,12.9,29.9
2.73333333333333,11.7819327745892,26.0196548402149,3.23150432956073,-0.156012524432304,3,12.8666666666667,29.9
2.76666666666667,11.7816603300756,26.1246847738788,3.07032312272495,-0.161181206835783,3,12.8333333333333,29.9
2.8,11.7813986634961,26.2243140551794,2.90746502610793,-0.162858096617014,3,12.8,29.9
2.83333333333333,11.7811482982858,26.318544246215,2.74637707180175,-0.161087954306184,3,12.7666666666667,29.9
2.86666666666667,11.7809095627474,26.4074634507656,2.58880481162265,-0.157572260179095,3,12.7333333333333,29.9
2.9,11.7806826894102,26.4911888749349,2.4347489450482,-0.154055866574446,3,12.7,29.9
2.93333333333333,11.7804679221896,26.5698086701715,2.28246563677336,-0.15228330827484,3,12.6666666666667,29.9
2.96666666666667,11.7802652946715,26.6434696518035,2.13729705788092,-0.145168578892448,3,12.6333333333333,29.9
3,11.7800741792227,26.7125693434619,2.00904229969846,-0.128254758182452,3,12.6,29.9
3.03333333333333,11.7798928223796,26.7779500253774,1.91421470347179,-0.0948275962266767,3,12.5666666666667,29.9
3.06666666666667,11.77971919172,26.8405264869871,1.84076585084341,-0.073448852628375,3,12.5333333333333,29.9
3.1,11.7795528474281,26.9004897552789,1.75739767625279,-0.0833681745906261,3,12.5,29.9
3.13333333333333,11.7793945195588,26.957506125498,1.66393395918239,-0.0934637170703918,3,12.4666666666667,29.9
3.16666666666667,11.7792447184352,27.0113244156565,1.56551796846892,-0.098415990713471,3,12.4333333333333,29.9
3.2,11.7791038905854,27.0617218405558,1.45869129150085,-0.106826676968073,3,12.4,29.9
3.23333333333333,11.7789725746314,27.1084469789511,1.34519912387298,-0.113492167627874,3,12.3666666666667,29.9
3.26666666666667,11.7788510642104,27.1513652140925,1.23029236902847,-0.114906754844502,3,12.3333333333333,29.9
3.3,11.7787395486684,27.1904013278028,1.11228310444729,-0.118009264581181,3,12.3,29.9
3.33333333333333,11.7786383890583,27.2254246438276,0.989556326831795,-0.122726777615498,3,12.2666666666667,29.9
3.36666666666667,11.7785479649731,27.256310472204,0.8640671756129,-0.125489151218895,3,12.2333333333333,29.9
3.4,11.7784686669112,27.2829405759877,0.734202558155374,-0.129864617457526,3,12.2,29.9
3.43333333333333,11.7784009003645,27.3051979277776,0.601690623109484,-0.13251193504589,3,12.1666666666667,29.9
3.46666666666667,11.7783450053195,27.3229956716399,0.466644327812398,-0.135046295297085,3,12.1333333333333,29.9
3.5,11.7783014505497,27.3361944634337,0.325767824305151,-0.140876503507247,3,12.1,29.9
3.53333333333333,11.7782706845922,27.3446588639754,0.182606464193498,-0.143161360111653,3,12.0666666666667,29.9
3.56666666666667,11.7782529128505,27.3483429902074,0.0392657283585319,-0.143340735834966,3,12.0333333333333,29.9
3.6,11.7782444730366,27.3487405382687,0.0412786830906941,0.00201295473216221,5,12,29.9
3.63333333333333,11.7782417003401,27.3473777229162,0.00625034318672868,-0.0350283399039654,3,11.9666666666667,29.9
3.66666666666667,11.7782417003401,27.3473777229162,0.00587241459586083,-0.000377928590867847,5,11.9333333333333,29.9
3.7,11.7782417003401,27.3473777229162,0.00457910915415771,-0.00129330544170312,5,11.9,29.9
3.73333333333333,11.7782417003401,27.3473777229162,0.00250168985250528,-0.00207741930165243,5,11.8666666666667,29.9
3.76666666666667,11.7782417003401,27.3473777229162,0.000149402618069601,-0.00235228723443568,5,11.8333333333333,29.9
3.8,11.7782417003401,27.3473777229162,0.00311607038373269,0.00296666776566309,5,11.8,29.9
3.83333333333333,11.7782417003401,27.3473777229162,0.00612346170691119,0.0030073913231785,5,11.7666666666667,29.9
3.86666666666667,11.7782417003401,27.3473777229162,0.00890782379750612,0.00278436209059493,5,11.7333333333333,29.9
3.9,11.7782417003401,27.3473777229162,0.0112395045940084,0.00233168079650228,5,11.7,29.9
3.93333333333333,11.7782417003401,27.3473777229162,0.0129399669893622,0.00170046239535377,5,11.6666666666667,29.9
3.96666666666667,11.7782417003401,27.3473777229162,0.013892320603106,0.000952353613743833,5,11.6333333333333,29.9
4,11.7782417003401,27.3473777229162,0.0140454523569357,0.000153131753829687,5,11.6,29.9
4.03333333333333,11.7782417003401,27.3473777229162,0.0134123164530516,-0.000633135903884051,5,11.5666666666667,29.9
4.06666666666667,11.7782417003401,27.3473777229162,0.0120633075529651,-0.00134900890008653,5,11.5333333333333,29.9
4.1,11.7782417003401,27.3473777229162,0.0101158800718389,-0.00194742748112625,5,11.5,29.9
4.13333333333333,11.7782417003401,27.3473777229162,0.00772169369343147,-0.00239418637840739,5,11.4666666666667,29.9
4.16666666666667,11.7782417003401,27.3473777229162,0.00505257093176192,-0.00266912276166954,5,11.4333333333333,29.9
4.2,11.7782417003401,27.3473777229162,0.00228646351433416,-0.00276610741742776,5,11.4,29.9
4.23333333333333,11.7782417003401,27.3473777229162,0.000405538688102558,-0.0018809248262316,5,11.3666666666667,29.9
4.26666666666667,11.7782417003401,27.3473777229162,0.00287033675057973,0.00246479806247717,5,11.3333333333333,29.9
4.3,11.7782417003401,27.3473777229162,0.00498151304827222,0.00211117629769249,5,11.3,29.9
4.33333333333333,11.7782417003401,27.3473777229162,0.00664525585109985,0.00166374280282763,5,11.2666666666667,29.9
4.36666666666667,11.7782417003401,27.3473777229162,0.00780342931114314,0.0011581734600433,5,11.2333333333333,29.9
4.4,11.7782417003401,27.3473777229162,0.00843391162733286,0.00063048231618972,5,11.2,29.9
4.43333333333333,11.7782417003401,27.3473777229162,0.00854849834189326,0.0001145867145604,5,11.1666666666667,29.9
4.46666666666667,11.7782417003401,27.3473777229162,0.00818879771841265,-0.000359700623480615,5,11.1333333333333,29.9
4.5,11.7782417003401,27.3473777229162,0.00742062828228972,-0.000768169436122928,5,11.1,29.9
4.53333333333333,11.7782417003401,27.3473777229162,0.00632746577867602,-0.0010931625036137,5,11.0666666666667,29.9
4.56666666666667,11.7782417003401,27.3473777229162,0.00500348192428024,-0.00132398385439578,5,11.0333333333333,29.9
4.6,11.7782417003401,27.3473777229162,0.00354667658431121,-0.00145680533996903,5,11,29.9
4.63333333333333,11.7782417003401,27.3473777229162,0.0020525361079485,-0.00149414047636271,5,10.9666666666667,29.9
4.66666666666667,11.7782417003401,27.3473777229162,0.000608562001391757,-0.00144397410655674,5,10.9333333333333,29.9
4.7,11.7782417003401,27.3473777229162,0.000710085497698128,0.000101523496306371,5,10.9,29.9
4.73333333333333,11.7782417003401,27.3473777229162,0.00184368694908802,0.00113360145138989,5,10.8666666666667,29.9
4.76666666666667,11.7782417003401,27.3473777229162,0.00274976271566913,0.000906075766581114,5,10.8333333333333,29.9
4.8,11.7782417003401,27.3473777229162,0.0034036161234576,0.000653853407788471,5,10.8,29.9
4.83333333333333,11.7782417003401,27.3473777229162,0.00379773931473322,0.000394123191275612,5,10.7666666666667,29.9
4.86666666666667,11.7782417003401,27.3473777229162,0.00394025693245449,0.000142517617721272,5,10.7333333333333,29.9
4.9,11.7782417003401,27.3473777229162,0.00385262080946231,-8.76361229921793e-05,5,10.7,29.9
4.93333333333333,11.7782417003401,27.3473777229162,0.00356678838886291,-0.000285832420599396,5,10.6666666666667,29.9
4.96666666666667,11.7782417003401,27.3473777229162,0.0031221199327735,-0.000444668456089412,5,10.6333333333333,29.9
5,11.7782417003401,27.3473777229162,0.00256221687396587,-0.000559903058807634,5,10.6,29.9
5.03333333333333,11.7782417003401,27.3473777229162,0.00193189877183152,-0.000630318102134352,5,10.5666666666667,29.9
5.06666666666667,11.7782417003401,27.3473777229162,0.00127448247192523,-0.00065741629990629,5,10.5333333333333,29.9
5.1,11.7782417003401,27.3473777229162,0.000629487577156899,-0.000644994894768327,5,10.5,29.9
5.13333333333333,11.7782417003401,27.3473777229162,3.08504477324438e-05,-0.000598637129424455,5,10.4666666666667,29.9
5.16666666666667,11.7782417003401,27.3473777229162,0.000494312414219309,0.000463461966486865,5,10.4333333333333,29.9
5.2,11.7782417003401,27.3473777229162,0.000926389083075755,0.000432076668856446,5,10.4,29.9
5.23333333333333,11.7782417003401,27.3473777229162,0.00125343589288629,0.000327046809810534,5,10.3666666666667,29.9
5.26666666666667,11.7782417003401,27.3473777229162,0.00147087798038648,0.000217442087500188,5,10.3333333333333,29.9
5.3,11.7782417003401,27.3473777229162,0.00158082448935076,0.00010994650896428,5,10.3,29.9
5.33333333333333,11.7782417003401,27.3473777229162,0.00159108878042006,1.02642910693007e-05,5,10.2666666666667,29.9
5.36666666666667,11.7782417003401,27.3473777229162,0.00151400941885504,-7.70793615650224e-05,5,10.2333333333333,29.9
5.4,11.7782417003401,27.3473777229162,0.00136516667727256,-0.000148842741582474,5,10.2,29.9
5.43333333333333,11.7782417003401,27.3473777229162,0.0011620827456809,-0.00020308393159166,5,10.1666666666667,29.9
5.46666666666667,11.7782417003401,27.3473777229162,0.00092298294296629,-0.000239099802714611,5,10.1333333333333,29.9
5.5,11.7782417003401,27.3473777229162,0.000665681230121316,-0.000257301712844974,5,10.1,29.9
5.53333333333333,11.7782417003401,27.3473777229162,0.000406637503916338,-0.000259043726204979,5,10.0666666666667,29.9
5.56666666666667,11.7782417003401,27.3473777229162,0.000160217699779131,-0.000246419804137206,5,10.0333333333333,29.9
5.6,11.7782417003401,27.3473777229162,6.18282779953857e-05,-9.83894217837457e-05,5,10,29.9
5.63333333333333,11.7782417003401,27.3473777229162,0.000250670461911147,0.000188842183915761,5,9.96666666666667,29.9
5.66666666666667,11.7782417003401,27.3473777229162,0.000400496893958553,0.000149826432047406,5,9.93333333333333,29.9
5.7,11.7782417003401,27.3473777229162,0.000508428384551947,0.000107931490593394,5,9.9,29.9
5.73333333333333,11.7782417003401,27.3473777229162,0.000574279933022296,6.58515484703493e-05,5,9.86666666666667,29.9
5.76666666666667,11.7782417003401,27.3473777229162,0.000600203455423146,2.592352240085e-05,5,9.83333333333334,29.9
5.8,11.7782417003401,27.3473777229162,0.000590248469652622,-9.95498577052451e-06,5,9.8,29.9
5.83333333333333,11.7782417003401,27.3473777229162,0.000549876986182317,-4.03714834703046e-05,5,9.76666666666667,29.9
5.86666666666667,11.7782417003401,27.3473777229162,0.000485466410143784,-6.44105760385327e-05,5,9.73333333333333,29.9
5.9,11.7782417003401,27.3473777229162,0.000403830210182132,-8.16361999616528e-05,5,9.7,29.9
5.93333333333333,11.7782417003401,27.3473777229162,0.000311780916657993,-9.20492935241389e-05,5,9.66666666666667,29.9
5.96666666666667,11.7782417003401,27.3473777229162,0.00021575414176457,-9.60267748934226e-05,5,9.63333333333333,29.9
6,11.7782417003401,27.3473777229162,0.000121506204675757,-9.4247937088813e-05,5,9.6,29.9
6.03333333333333,11.7782417003401,27.3473777229162,3.38919843237827e-05,-8.76142203519744e-05,5,9.56666666666667,29.9
6.06666666666667,11.7782417003401,27.3473777229162,4.32758658574892e-05,9.38388153370649e-06,5,9.53333333333333,29.9
6.1,11.7782417003401,27.3473777229162,0.00010728997410559,6.40141082481004e-05,5,9.5,29.9
6.13333333333333,11.7782417003401,27.3473777229162,0.000156541085882718,4.92511117771288e-05,5,9.46666666666667,29.9
6.16666666666667,11.7782417003401,27.3473777229162,0.000190451077319445,3.39099914367263e-05,5,9.43333333333333,29.9
6.2,11.7782417003401,27.3473777229162,0.000209358426554478,1.89073492350333e-05,5,9.4,29.9
6.23333333333333,11.7782417003401,27.3473777229162,0.000214369334669739,5.01090811526154e-06,5,9.36666666666667,29.9
6.26666666666667,11.7782417003401,27.3473777229162,0.000207187718931,-7.18161573873982e-06,5,9.33333333333333,29.9
6.3,11.7782417003401,27.3473777229162,0.000189936578212399,-1.72511407186011e-05,5,9.3,29.9
