Time,x_ego,y_ego,velocity,acceleration,action,x_ped,y_ped
0,11.8,15.9,7,0,1,15.5,29.9
0.0333333333333333,11.8,16.1332703793943,6.99615577953002,-0.00384422046998356,1,15.5,29.9
0.0666666666666667,11.8,16.3664065988113,6.99196947109348,-0.00418630843653833,1,15.5,29.9
0.1,11.8,16.5994007552791,6.98769498718995,-0.00427448390352669,1,15.5,29.9
0.133333333333333,11.8,16.8322537852842,6.9834976545359,-0.00419733265404787,1,15.5,29.9
0.166666666666667,11.8000074563817,17.0649678802095,6.97935588211515,-0.00414177242075464,1,15.5,29.9
0.2,11.8000541200885,17.297544617857,6.97525439933287,-0.00410148278228206,1,15.5,29.9
0.233333333333333,11.8001652667265,17.5299851326855,6.97118231351637,-0.00407208581649243,1,15.5,29.9
0.266666666666667,11.800354015073,17.7622902364321,6.9671316145024,-0.00405069901397592,1,15.5,29.9
0.3,11.8006249446672,17.9944605069604,6.963096367572,-0.00403524693040147,1,15.5,29.9
0.333333333333333,11.800977343737,18.2264963552386,6.95907224130806,-0.00402412626393289,1,15.5,29.9
0.366666666666667,11.8014077017349,18.4583980754126,6.95505615117505,-0.00401609013301663,1,15.5,29.9
0.4,11.8019113617209,18.6901658811689,6.95104594769775,-0.00401020347729641,1,15.5,29.9
0.433333333333333,11.8024834496174,18.9217999312461,6.94704014897445,-0.00400579872329665,1,15.5,29.9
0.466666666666667,11.8031201338762,19.1533003456397,6.94303783154911,-0.00400231742534007,1,15.5,29.9
0.5,11.8038206608366,19.3846672131767,6.93903831650273,-0.00399951504638718,1,15.5,29.9
0.533333333333333,11.8045839336064,19.6159006026571,6.93504101051673,-0.0039973059859939,1,15.5,29.9
0.566666666666667,11.8054079125981,19.847000570182,6.93104548526181,-0.00399552525491842,1,15.5,29.9
0.6,11.8062901052165,20.0779671630957,6.92705144009123,-0.00399404517058422,1,15.5,29.9
0.633333333333333,11.8072280423633,20.3088004222093,6.92305867297471,-0.00399276711652519,1,15.5,29.9
0.666666666666667,11.8082196564599,20.5395003829487,6.91906705539043,-0.00399161758427535,1,15.5,29.9
0.7,11.8092635087282,20.7700670759652,6.91507650993429,-0.00399054545613886,1,15.5,29.9
0.733333333333333,11.8103588529386,21.000500527601,6.91108699125335,-0.00398951868093889,1,15.5,29.9
0.766666666666667,11.8115055581828,21.2308007604454,6.90709847130495,-0.00398851994840577,1,15.5,29.9
0.8,11.812703937091,21.460967794065,6.90311092935382,-0.00398754195112794,1,15.5,29.9
0.833333333333333,11.813954535152,21.691001645879,6.89912434629271,-0.00398658306111255,1,15.5,29.9
0.866666666666667,11.8152579322989,21.9209023320687,6.89513870232785,-0.00398564396485845,1,15.5,29.9
0.9,11.8166145935632,22.1506698683902,6.89115397692566,-0.00398472540218453,1,15.5,29.9
0.933333333333333,11.8180247866374,22.3803042707742,6.88717015002154,-0.00398382690411836,1,15.5,29.9
0.966666666666667,11.8194885657786,22.6098055556562,6.88318720367171,-0.0039829463498382,1,15.5,29.9
1,11.8210058075429,22.8391737400387,6.87920512351399,-0.00398208015772017,1,15.5,29.9
1.03333333333333,11.8225762763688,23.0684088413476,6.87522389960895,-0.00398122390503186,1,15.5,29.9
1.06666666666667,11.824199697183,23.297510877176,6.87124352647554,-0.00398037313341781,1,15.5,29.9
1.1,11.8258758165674,23.5264798650145,6.86726400238501,-0.00397952409052671,1,15.5,29.9
1.13333333333333,11.827604441419,23.7553158220456,6.86328532816966,-0.00397867421535469,1,15.5,29.9
1.16666666666667,11.8293854520401,23.9840187650493,6.85930750588643,-0.00397782228322363,1,15.5,29.9
1.2,11.8312187932993,24.2125887104255,6.85533053764625,-0.00397696824017935,1,15.5,29.9
1.23333333333333,11.8331044516803,24.4410256743097,6.85135442481169,-0.00397611283456722,1,15.5,29.9
1.26666666666667,11.8350424273813,24.6693296727374,6.84737916763314,-0.0039752571785403,1,15.5,29.9
1.3,11.8370327094996,24.8975007218091,6.84340476527896,-0.00397440235418323,1,15.5,29.9
1.33333333333333,11.8390752596286,25.1255388378148,6.83943121614088,-0.00397354913808634,1,15.5,29.9
1.36666666666667,11.841170005883,25.3534440372957,6.83545851826775,-0.00397269787312293,1,15.5,29.9
1.4,11.8433168464024,25.5812163370378,6.83148666978996,-0.00397184847779641,1,15.5,29.9
1.43333333333333,11.8455156593359,25.8088557540122,6.82751566923331,-0.00397100055664801,1,15.5,29.9
1.46666666666667,11.8477663154712,26.0363623052858,6.82354551567169,-0.00397015356161834,1,15.5,29.9
1.5,11.8500686899186,26.2637360079282,6.8195762087176,-0.00396930695409203,1,15.5,29.9
1.53333333333333,11.8524226703086,26.4909768789402,6.81560774838898,-0.00396846032862097,1,15.5,29.9
1.56666666666667,11.8548281603532,26.7180849352143,6.81164013491173,-0.00396761347724706,1,15.5,29.9
1.6,11.8572850789679,26.9450601935331,6.80767336851907,-0.00396676639266325,1,15.5,29.9
1.63333333333333,11.8597933561421,27.1719026705987,6.80370744929551,-0.00396591922355771,1,15.5,29.9
1.66666666666667,11.8623529272306,27.3986123830795,6.79974237709171,-0.00396507220380204,1,15.5,29.9
1.7,11.8649637273287,27.6251893476619,6.79577815151356,-0.00396422557814446,1,15.5,29.9
1.73333333333333,11.8676256869976,27.8516335810934,6.79181477197105,-0.00396337954250825,1,15.5,29.9
1.76666666666667,11.8703387300062,28.0779451002078,6.78785223776176,-0.00396253420929593,1,15.5,29.9
1.8,11.8731027731463,28.3041239219319,6.78389054816179,-0.00396168959996412,1,15.5,29.9
1.83333333333333,11.8759177276825,28.5301700632745,6.77992970250143,-0.0039608456603677,1,15.5,29.9
1.86666666666667,11.8787835017309,28.7560835413039,6.77596970021131,-0.00396000229011584,1,15.5,29.9
1.9,11.8817000028066,28.9818643731215,6.77201054083529,-0.00395915937601643,1,15.5,29.9
1.93333333333333,11.8846671399177,29.2075125758389,6.76805222401441,-0.00395831682087966,1,15.5,29.9
1.96666666666667,11.8876848248331,29.433028166573,6.76409475181732,-0.00395747219709186,1,15.5,29.9
2,11.8907529724371,29.6584111633334,6.76013819862058,-0.00395655319674493,1,15.5,29.9
2.03333333333333,11.8938715003376,29.8836615891453,6.75618278582178,-0.00395541279879374,1,15.5,29.9
2.06666666666667,11.8970403279764,30.1087794758882,6.75222880953002,-0.00395397629176752,1,15.5,29.9
2.1,11.9002593755476,30.3337648656909,6.74827657971905,-0.00395222981096222,1,15.5,29.9
2.13333333333333,11.9035285630296,30.5586178108062,6.74432638781143,-0.00395019190762458,1,15.5,29.9
2.16666666666667,11.9068478095336,30.7833383727129,6.74037849150788,-0.00394789630354442,1,15.5,29.9
2.2,11.9102170330476,31.0079266208914,6.73643310972389,-0.00394538178399273,1,15.5,29.9
2.23333333333333,11.9136361505449,31.232382631528,6.73249042313052,-0.00394268659337094,1,15.5,29.9
2.26666666666667,11.9171050783448,31.4567064862866,6.72855057752634,-0.00393984560417859,1,15.5,29.9
2.3,11.9206237325825,31.6808982712137,6.72461368838505,-0.00393688914129076,1,15.5,29.9
2.33333333333333,11.9241920296538,31.9049580758956,6.72067986019107,-0.00393382819397825,1,15.5,29.9
2.36666666666667,11.9278098865679,32.12888599513,6.71674933642684,-0.00393052376423064,1,15.5,29.9
2.4,11.9314772212199,32.3526821366975,6.71282265418073,-0.00392668224611192,1,15.5,29.9
2.43333333333333,11.9351939524982,32.5763466288948,6.7089004557839,-0.00392219839683339,1,15.5,29.9
2.46666666666667,11.9389600001741,32.7998796213433,6.70498338668686,-0.00391706909703338,1,15.5,29.9
2.5,11.9427752847094,33.0232812845025,6.70107202006892,-0.00391136661794445,1,15.5,29.9
2.53333333333333,11.9466397270197,33.2465518063333,6.69716685994144,-0.00390516012747799,1,15.5,29.9
2.56666666666667,11.9505532483297,33.4696913919174,6.69326841398507,-0.00389844595637445,1,15.5,29.9
2.6,11.9545157700687,33.692700261095,6.68937703293335,-0.00389138105172204,1,15.5,29.9
2.63333333333333,11.9585272137916,33.9155786430234,6.6854929511309,-0.00388408180244326,1,15.5,29.9
2.66666666666667,11.9625866918349,34.1383267869451,6.68161620106903,-0.00387675006187305,1,15.5,29.9
2.7,11.9666890836049,34.3609450180697,6.67774664039623,-0.00386956067280053,1,15.5,29.9
2.73333333333333,11.9708231886272,34.5834337745105,6.67388425656634,-0.00386238382988413,1,15.5,29.9
2.76666666666667,11.974973687836,34.8057935780886,6.67002913037499,-0.00385512619134953,1,15.5,29.9
2.8,11.9791225408744,35.0280250067502,6.66618124891591,-0.00384788145908654,1,15.5,29.9
2.83333333333333,11.9832493775898,35.250128682475,6.66234073749564,-0.00384051142026642,1,15.5,29.9
2.86666666666667,11.9873366190841,35.4721051765913,6.65850775469786,-0.00383298279778455,1,15.5,29.9
2.9,11.9913666171374,35.6939550584836,6.65468253678159,-0.00382521791626811,1,15.5,29.9
2.93333333333333,11.9953265820849,35.91567880587,6.65086526218469,-0.00381727459689785,1,15.5,29.9
2.96666666666667,11.9992094610971,36.1372767867766,6.64705590174112,-0.00380936044357405,1,15.5,29.9
3,12.003014792352,36.3587492449052,6.64325426196447,-0.0038016397766496,1,15.5,29.9
3.03333333333333,12.0067467435321,36.5800963381083,6.63946012438887,-0.00379413757560076,1,15.5,29.9
3.06666666666667,12.0104119300924,36.8013181812608,6.63567333330901,-0.00378679107985302,1,15.5,29.9
3.1,12.0140179074581,37.0224148757077,6.63189380618853,-0.00377952712048302,1,15.5,29.9
3.13333333333333,12.0175722130919,37.2433865270163,6.62812150725908,-0.00377229892945063,1,15.5,29.9
3.16666666666667,12.0210817985395,37.4642332542593,6.62435641600418,-0.00376509125490188,1,15.5,29.9
3.2,12.0245527074846,37.6849551940538,6.62059850510548,-0.00375791089869981,1,15.5,29.9
3.23333333333333,12.0279898980839,37.9055525017558,6.61684772989696,-0.00375077520852329,1,15.5,29.9
3.26666666666667,12.031397154478,38.1260253511854,6.61310402587302,-0.00374370402393431,1,15.5,29.9
3.3,12.0347755060014,38.3463739588898,6.6093674429735,-0.00373658289951706,1,15.5,29.9
3.33333333333333,12.038118905296,38.5665986517121,6.6056379962734,-0.00372944670010789,1,15.5,29.9
3.36666666666667,12.0414158208146,38.7866998361867,6.60191579853036,-0.00372219774303506,1,15.5,29.9
3.4,12.0446429251053,39.006678093899,6.59820124289427,-0.00371455563608869,1,15.5,29.9
3.43333333333333,12.0477652620049,39.2265341662608,6.59449490936892,-0.00370633352534799,1,15.5,29.9
3.46666666666667,12.0507413344604,39.4462688563252,6.59079755025547,-0.0036973591134517,1,15.5,29.9
