Time,x_ego,y_ego,velocity,acceleration,action,x_ped,y_ped
0,11.8,15.9,5,0,1,15.5,29.9
0.0333333333333333,11.799994561939,16.0666076888319,4.99642263576418,-0.00357736423581567,1,15.5,29.9
0.0666666666666667,11.7999596752166,16.2330926526628,4.99264782574086,-0.00377481002332214,1,15.5,29.9
0.1,11.7998745937019,16.3994492926607,4.98873225914139,-0.00391556659947323,1,15.5,29.9
0.133333333333333,11.7997273644594,16.5656736048075,4.9847164371638,-0.0040158219775881,1,15.5,29.9
0.166666666666667,11.7995133075658,16.7317627257814,4.98062918294348,-0.00408725422031786,1,15.5,29.9
0.2,11.7992331502751,16.8977146098816,4.97649100226775,-0.0041381806757359,1,15.5,29.9
0.233333333333333,11.798891205683,17.063527799605,4.97231653439135,-0.00417446787640152,1,15.5,29.9
0.266666666666667,11.7984938290445,17.2292012622699,4.96811629114091,-0.00420024325043755,1,15.5,29.9
0.3,11.7980482414127,17.3947342728474,4.96389786505431,-0.0042184260866005,1,15.5,29.9
0.333333333333333,11.7975599253192,17.5601263270737,4.95966704898468,-0.00423081606962938,1,15.5,29.9
0.366666666666667,11.797028358091,17.7253770727387,4.95542789874747,-0.00423915023721033,1,15.5,29.9
0.4,11.7964558240478,17.8904862732847,4.95118295185275,-0.00424494689471544,1,15.5,29.9
0.433333333333333,11.7958481468379,18.0554537799419,4.94693414270034,-0.00424880915240955,1,15.5,29.9
0.466666666666667,11.7952115821389,18.2202795061776,4.94268290330574,-0.00425123939460459,1,15.5,29.9
0.5,11.7945530828354,18.3849634122081,4.93843033482358,-0.00425256848215483,1,15.5,29.9
0.533333333333333,11.7938771748299,18.5495054864457,4.93417744988937,-0.00425288493420961,1,15.5,29.9
0.566666666666667,11.793183967278,18.7139057297792,4.92992494949196,-0.00425250039741787,1,15.5,29.9
0.6,11.7924718315816,18.8781641530222,4.92567323074556,-0.0042517187463984,1,15.5,29.9
0.633333333333333,11.7917385108475,19.0422807745534,4.92142256156059,-0.00425066918497041,1,15.5,29.9
0.666666666666667,11.7909815320236,19.2062556181843,4.91717311913302,-0.00424944242756986,1,15.5,29.9
0.7,11.7901991222255,19.370088713856,4.91292493594863,-0.00424818318438813,1,15.5,29.9
0.733333333333333,11.789391852281,19.5337801022393,4.90867804350049,-0.00424689244813425,1,15.5,29.9
0.766666666666667,11.7885604620488,19.6973298278765,4.90443254098025,-0.0042455025202468,1,15.5,29.9
0.8,11.7877053147764,19.860737936472,4.9001884977569,-0.00424404322334659,1,15.5,29.9
0.833333333333333,11.7868265222189,20.0240044744393,4.89594595965552,-0.00424253810137909,1,15.5,29.9
0.866666666666667,11.7859240527815,20.1871294886633,4.89170495522769,-0.00424100442782827,1,15.5,29.9
0.9,11.7849978060653,20.3501130263535,4.88746550136945,-0.00423945385824087,1,15.5,29.9
0.933333333333333,11.784047651861,20.5129551349161,4.88322760784253,-0.00423789352691983,1,15.5,29.9
0.966666666666667,11.7830734421672,20.6756558618268,4.87899128050092,-0.00423632734160861,1,15.5,29.9
1,11.7820750097183,20.8382152545166,4.87475652324855,-0.0042347572523731,1,15.5,29.9
1.03333333333333,11.7810521660482,21.0006333603021,4.87052333893698,-0.00423318431156794,1,15.5,29.9
1.06666666666667,11.7800047077957,21.1629102263845,4.86629172953469,-0.00423160940228939,1,15.5,29.9
1.1,11.7789324339532,21.3250458999242,4.86206169593991,-0.00423003359478802,1,15.5,29.9
1.13333333333333,11.777835171174,21.4870404281751,4.85783323776471,-0.00422845817519324,1,15.5,29.9
1.16666666666667,11.7767128006462,21.6488938586447,4.85360635331138,-0.0042268844533293,1,15.5,29.9
1.2,11.7755652791045,21.8106062392377,4.84938103982922,-0.00422531348216193,1,15.5,29.9
1.23333333333333,11.7743926481085,21.9721776183434,4.84515729401734,-0.00422374581188389,1,15.5,29.9
1.26666666666667,11.7731950289542,22.1336080448431,4.84093511265079,-0.0042221813665444,1,15.5,29.9
1.3,11.7719726043391,22.2948975680337,4.83671449316882,-0.00422061948197427,1,15.5,29.9
1.33333333333333,11.7707255910797,22.4560462374837,4.83249543407766,-0.00421905909116127,1,15.5,29.9
1.36666666666667,11.7694542099851,22.6170541028547,4.82827793507784,-0.00421749899982249,1,15.5,29.9
1.4,11.7681586591201,22.7779212137251,4.82406199690562,-0.00421593817221755,1,15.5,29.9
1.43333333333333,11.7668390953131,22.9386476194529,4.81984762095439,-0.00421437595123297,1,15.5,29.9
1.46666666666667,11.7654956264045,23.0992333690994,4.81563480879074,-0.00421281216364466,1,15.5,29.9
1.5,11.7641283140983,23.2596785114206,4.81142356169127,-0.00421124709947307,1,15.5,29.9
1.53333333333333,11.7627371850353,23.4199830949205,4.80721388030227,-0.00420968138899447,1,15.5,29.9
1.56666666666667,11.7613222463308,23.5801471679419,4.80300576447972,-0.0042081158225562,1,15.5,29.9
1.6,11.7598835015007,23.7401707787718,4.79879921331593,-0.0042065511637901,1,15.5,29.9
1.63333333333333,11.7584209633539,23.9000539757338,4.79459422531682,-0.00420498799910884,1,15.5,29.9
1.66666666666667,11.7569346617371,24.059796807251,4.79039079866616,-0.00420342665065299,1,15.5,29.9
1.7,11.7554246455793,24.2193993218692,4.78618893150472,-0.00420186716144499,1,15.5,29.9
1.73333333333333,11.7538909800752,24.3788615682444,4.78198862216062,-0.00420030934410143,1,15.5,29.9
1.76666666666667,11.7523337407873,24.5381835951041,4.77778986928905,-0.0041987528715719,1,15.5,29.9
1.8,11.7507530067874,24.6973654511966,4.77359267190714,-0.00419719738190505,1,15.5,29.9
1.83333333333333,11.749148854731,24.8564071852453,4.76939702933694,-0.00419564257020255,1,15.5,29.9
1.86666666666667,11.747521355128,25.0153088459172,4.76520294108859,-0.00419408824834644,1,15.5,29.9
1.9,11.745870571257,25.1740704818115,4.76101040672428,-0.0041925343643161,1,15.5,29.9
1.93333333333333,11.7441965604148,25.3326921414685,4.75681942573997,-0.00419098098430482,1,15.5,29.9
1.96666666666667,11.7424993766557,25.4911738733916,4.75262999749067,-0.00418942824930557,1,15.5,29.9
2,11.7407790739636,25.6495157260745,4.74844212116874,-0.00418787632192519,1,15.5,29.9
2.03333333333333,11.7390357088916,25.8077177480254,4.74425579583027,-0.00418632533846797,1,15.5,29.9
2.06666666666667,11.7372693420256,25.9657799877813,4.74007102045301,-0.00418477537726591,1,15.5,29.9
2.1,11.7354800380613,26.1237024939095,4.73588779400492,-0.00418322644808189,1,15.5,29.9
2.13333333333333,11.7336678646853,26.2814853149988,4.73170611550352,-0.00418167850140527,1,15.5,29.9
2.16666666666667,11.73183289074,26.4391284996413,4.72752598405188,-0.00418013145164409,1,15.5,29.9
2.2,11.7299751842632,26.5966320964138,4.72334739884604,-0.00417858520583092,1,15.5,29.9
2.23333333333333,11.728094810934,26.7539961538612,4.71917035915653,-0.00417703968951422,1,15.5,29.9
2.26666666666667,11.7261918332721,26.9112207204873,4.71499486429295,-0.00417549486358215,1,15.5,29.9
2.3,11.7242663106904,27.0683058447538,4.71082091356365,-0.0041739507292986,1,15.5,29.9
2.33333333333333,11.7223183002718,27.2252515750883,4.70664850624153,-0.00417240732212409,1,15.5,29.9
2.36666666666667,11.7203478579763,27.3820579598954,4.70247764154376,-0.00417086469776962,1,15.5,29.9
2.4,11.7183550399225,27.538725047571,4.69830831862848,-0.0041693229152715,1,15.5,29.9
2.43333333333333,11.7163399034235,27.6952528865141,4.6941405366067,-0.00416778202178669,1,15.5,29.9
2.46666666666667,11.714302507565,27.851641525133,4.689974294564,-0.00416624204269578,1,15.5,29.9
2.5,11.7122429132608,28.0078910118478,4.68580959158542,-0.0041647029785814,1,15.5,29.9
2.53333333333333,11.710161182856,28.1640013950856,4.68164642677664,-0.00416316480878365,1,15.5,29.9
2.56666666666667,11.7080573794465,28.3199727232739,4.67748479927706,-0.00416162749958104,1,15.5,29.9
2.6,11.7059315661265,28.4758050448313,4.6733247082628,-0.0041600910142563,1,15.5,29.9
2.63333333333333,11.7037838053551,28.6314984081605,4.66916615294054,-0.00415855532226406,1,15.5,29.9
2.66666666666667,11.7016141585733,28.787052861643,4.66500913253517,-0.00415702040536736,1,15.5,29.9
2.7,11.6994226861207,28.9424684536379,4.66085364627538,-0.00415548625978879,1,15.5,29.9
2.73333333333333,11.697209447416,29.0977452324836,4.65669969338093,-0.00415395289444831,1,15.5,29.9
2.76666666666667,11.6949745013124,29.2528832465018,4.65254727305449,-0.00415242032644514,1,15.5,29.9
2.8,11.6927179065076,29.4078825440028,4.6483963844792,-0.00415088857528456,1,15.5,29.9
2.83333333333333,11.690439721898,29.5627431732898,4.64424702682166,-0.00414935765753999,1,15.5,29.9
2.86666666666667,11.6881400067988,29.7174651826615,4.64009919923849,-0.00414782758316701,1,15.5,29.9
2.9,11.685818821,29.872048620414,4.63595290088443,-0.00414629835406455,1,15.5,29.9
2.93333333333333,11.6834762246725,30.0264935348385,4.63180813091951,-0.00414476996491508,1,15.5,29.9
2.96666666666667,11.681112278175,30.1807999742198,4.62766488851388,-0.00414324240563158,1,15.5,29.9
3,11.6787270418283,30.3349679868328,4.62352317284929,-0.00414171566459576,1,15.5,29.9
3.03333333333333,11.6763205757184,30.4889976209398,4.61938298311758,-0.00414018973170993,1,15.5,29.9
3.06666666666667,11.6738929395754,30.642888924789,4.61524431851705,-0.00413866460052503,1,15.5,29.9
3.1,11.671444192744,30.7966419466136,4.61110717824794,-0.00413714026911105,1,15.5,29.9
3.13333333333333,11.6689743942401,30.9502567346328,4.60697156150832,-0.00413561673962359,1,15.5,29.9
3.16666666666667,11.6664836028627,31.103733337053,4.60283746749138,-0.00413409401694054,1,15.5,29.9
3.2,11.6639718773262,31.2570718020699,4.59870489538457,-0.00413257210680662,1,15.5,29.9
3.23333333333333,11.6614392763737,31.4102721778701,4.59457384437047,-0.00413105101409794,1,15.5,29.9
3.26666666666667,11.6588858588481,31.5633345126318,4.59044431362888,-0.00412953074158917,1,15.5,29.9
3.3,11.6563116837089,31.7162588545257,4.58631630233945,-0.00412801128943574,1,15.5,29.9
3.33333333333333,11.6537168099988,31.8690452517142,4.58218980968403,-0.00412649265542075,1,15.5,29.9
3.36666666666667,11.6511012967775,32.0216937523503,4.57806483484828,-0.00412497483574281,1,15.5,29.9
3.4,11.648465203044,32.1742044045767,4.5739413770222,-0.00412345782608892,1,15.5,29.9
3.43333333333333,11.6458085876679,32.3265772565245,4.56981943539956,-0.00412194162263102,1,15.5,29.9
3.46666666666667,11.6431315093471,32.4788123563127,4.56569900917677,-0.00412042622279518,1,15.5,29.9
3.5,11.6404340265963,32.6309097520477,4.56158009755125,-0.0041189116255218,1,15.5,29.9
3.53333333333333,11.6377161977651,32.7828694918235,4.55746269972008,-0.00411739783117149,1,15.5,29.9
3.56666666666667,11.6349780810765,32.9346916237225,4.55334681487903,-0.00411588484104097,1,15.5,29.9
3.6,11.632219734672,33.0863761958164,4.54923244222227,-0.0041143726567654,1,15.5,29.9
3.63333333333333,11.6294412166528,33.237923256166,4.54511958094256,-0.00411286127970545,1,15.5,29.9
3.66666666666667,11.6266425851053,33.3893328528225,4.54100823023205,-0.00411135071051127,1,15.5,29.9
3.7,11.6238238981092,33.5406050338273,4.53689838928312,-0.00410984094893685,1,15.5,29.9
3.73333333333333,11.6209852137276,33.6917398472117,4.53279005728921,-0.00410833199390748,1,15.5,29.9
3.76666666666667,11.6181265899858,33.8427373409967,4.52868323344542,-0.00410682384378713,1,15.5,29.9
3.8,11.6152480848447,33.9935975631926,4.5245779169487,-0.00410531649672308,1,15.5,29.9
3.83333333333333,11.6123497561777,34.1443205617983,4.52047410699768,-0.00410380995101711,1,15.5,29.9
3.86666666666667,11.6094316617548,34.2949063848012,4.51637180279232,-0.0041023042053645,1,15.5,29.9
3.9,11.6064938592383,34.4453550801773,4.51227100353333,-0.00410079925898721,1,15.5,29.9
3.93333333333333,11.6035364061876,34.5956666958906,4.50817170842174,-0.0040992951115939,1,15.5,29.9
3.96666666666667,11.6005593600717,34.7458412798939,4.5040739166585,-0.00409779176323077,1,15.5,29.9
4,11.5975627782847,34.8958788801288,4.49997762744443,-0.00409628921407101,1,15.5,29.9
4.03333333333333,11.5945467181591,35.0457795445261,4.49588283998023,-0.00409478746420788,1,15.5,29.9
4.06666666666667,11.5915112369755,35.1955433210056,4.49178955346671,-0.00409328651351348,1,15.5,29.9
4.1,11.588456391965,35.3451702574765,4.48769776710517,-0.0040917863615455,1,15.5,29.9
4.13333333333333,11.5853822403067,35.494660401837,4.48360748009758,-0.00409028700759073,1,15.5,29.9
4.16666666666667,11.5822888391204,35.6440138019745,4.47951869164685,-0.00408878845072458,1,15.5,29.9
4.2,11.5791762454578,35.7932305057651,4.4754314009569,-0.00408729068995406,1,15.5,29.9
4.23333333333333,11.5760445162945,35.9423105610739,4.47134560723257,-0.00408579372432438,1,15.5,29.9
4.26666666666667,11.5728937085248,36.0912540157541,4.46726130967955,-0.00408429755302109,1,15.5,29.9
4.3,11.5697244345615,36.2400609286172,4.46317843040927,-0.00408287927028628,1,15.5,29.9
4.33333333333333,11.5665392286455,36.3887313970023,4.45909693117592,-0.00408149923334733,1,15.5,29.9
4.36666666666667,11.5633408629794,36.5372655244013,4.45501679834478,-0.0040801328311364,1,15.5,29.9
4.4,11.5601335957767,36.6856634457178,4.45093797986884,-0.0040788184759375,1,15.5,29.9
4.43333333333333,11.5569230843442,36.8339253263322,4.44686047987555,-0.00407749999329443,1,15.5,29.9
4.46666666666667,11.5537156267335,36.9820513471607,4.44278434682407,-0.00407613305147692,1,15.5,29.9
4.5,11.550518201434,37.1300417052837,4.43870960640125,-0.00407474042282274,1,15.5,29.9
4.53333333333333,11.5473393182602,37.2778966310438,4.43463635096522,-0.00407325543602699,1,15.5,29.9
4.56666666666667,11.5441865903315,37.4256163374572,4.43056472230869,-0.0040716286565381,1,15.5,29.9
4.6,11.54106617215,37.5732010070817,4.42649481673593,-0.00406990557275666,1,15.5,29.9
4.63333333333333,11.537983253175,37.7206508009254,4.42242667850361,-0.00406813823232177,1,15.5,29.9
4.66666666666667,11.5349434634148,37.8679658867187,4.41836035080206,-0.0040663277015458,1,15.5,29.9
4.7,11.5319509731834,38.0151463989888,4.41429584327203,-0.00406450753002918,1,15.5,29.9
4.73333333333333,11.5290088300427,38.1621924457423,4.41023315106447,-0.00406269220756172,1,15.5,29.9
4.76666666666667,11.5261211793918,38.3091041541317,4.40617231542632,-0.00406083563814974,1,15.5,29.9
4.8,11.523293428744,38.4558816731183,4.40211340812589,-0.00405890730042557,1,15.5,29.9
4.83333333333333,11.5205318614163,38.6025251644054,4.39805651046377,-0.00405689766212625,1,15.5,29.9
4.86666666666667,11.5178431318087,38.7490347908345,4.39400169385931,-0.00405481660445872,1,15.5,29.9
4.9,11.5152344763527,38.8954107191992,4.38994912231547,-0.00405257154383687,1,15.5,29.9
4.93333333333333,11.5127143368795,39.0416531307148,4.38589882678186,-0.00405029553361214,1,15.5,29.9
4.96666666666667,11.5102887845188,39.1877621487685,4.38185067907742,-0.00404814770444073,1,15.5,29.9
5,11.5079618589539,39.3337378472266,4.37780433419535,-0.00404634488206845,1,15.5,29.9
5.03333333333333,11.5057325396806,39.4795801961083,4.37375913854266,-0.00404519565269101,1,15.5,29.9
5.06666666666667,11.5035953459321,39.6252890814826,4.36971455062586,-0.00404458791680096,1,15.5,29.9
