Time,x_ego,y_ego,velocity,acceleration,action,x_ped,y_ped
0,11.8,15.9,7,0,1,15.5,29.9
0.0333333333333333,11.8,16.1332703793943,6.99615577953002,-0.00384422046998356,1,15.5,29.9
0.0666666666666667,11.8,16.3664065988113,6.99196947109348,-0.00418630843653833,1,15.5,29.9
0.1,11.8,16.5994007552791,6.98769498718995,-0.00427448390352669,1,15.5,29.9
0.133333333333333,11.8,16.8322537852842,6.9834976545359,-0.00419733265404787,1,15.5,29.9
0.166666666666667,11.8,17.0649678802301,6.97935585456763,-0.00414179996826913,1,15.5,29.9
0.2,11.8,17.2975446186632,6.97525409491249,-0.00410175965514537,1,15.5,29.9
0.233333333333333,11.8,17.5299851399444,6.97118127319767,-0.00407282171482137,1,15.5,29.9
0.266666666666667,11.8,17.7622902687052,6.96712943294736,-0.00405184025031069,1,15.5,29.9
0.3,11.8,17.9944606040335,6.96309287213007,-0.00403656081728965,1,15.5,29.9
0.333333333333333,11.7999975220147,18.2263232798285,6.94866950273026,-0.0144233693998119,1,15.5,29.9
0.366666666666667,11.7999820157752,18.4576762778113,6.93251191910796,-0.0161575836222969,1,15.5,29.9
0.4,11.7999450890836,18.688433421376,6.91291821447993,-0.0195937046280328,3,15.5,29.9
0.433333333333333,11.7998824033674,18.9185084934645,6.89158785153589,-0.0213303629440356,3,15.5,29.9
0.466666666666667,11.7997924808296,19.147843953491,6.86854198484591,-0.0230458666899835,3,15.5,29.9
0.5,11.7996756347429,19.3763826077643,6.84378024302011,-0.0247617418257979,3,15.5,29.9
0.533333333333333,11.7995331427076,19.6040959567589,6.81902456353276,-0.0247556794873445,3,15.5,29.9
0.566666666666667,11.7993666952375,19.8309841963519,6.79427470452203,-0.0247498590107353,3,15.5,29.9
0.6,11.7991780958651,20.057018450722,6.76778659119134,-0.0264881133306893,3,15.5,29.9
0.633333333333333,11.798969132528,20.2821124400329,6.73786002338759,-0.0299265678037495,3,15.5,29.9
0.666666666666667,11.7987415393688,20.506122489793,6.70275149779194,-0.0351085255956454,3,15.5,29.9
0.7,11.7984969774704,20.7288755165148,6.66243992931132,-0.0403115684806279,3,15.5,29.9
0.733333333333333,11.798237006266,20.9501984624199,6.61694793048683,-0.0454919988244864,3,15.5,29.9
0.766666666666667,11.7979630517516,21.1699186612957,6.56627637838344,-0.0506715521033865,3,15.5,29.9
0.8,11.7976763664846,21.3878634768102,6.5104261928471,-0.0558501855363476,3,15.5,29.9
0.833333333333333,11.7973780702221,21.6037738332528,6.44421020177992,-0.0662159910671756,3,15.5,29.9
0.866666666666667,11.7970691255697,21.8173329321517,6.36935212854865,-0.0748580732312698,3,15.5,29.9
0.9,11.7967502579773,22.0282817937429,6.28759739000381,-0.0817547385448441,3,15.5,29.9
0.933333333333333,11.7964220515007,22.2363614840782,6.19720340241142,-0.0903939875923845,3,15.5,29.9
0.966666666666667,11.7960849146999,22.441399587407,6.10510371699758,-0.0920996854138414,3,15.5,29.9
1,11.7957390731299,22.6433679591437,6.01302111647383,-0.0920826005237485,3,15.5,29.9
1.03333333333333,11.7953847473936,22.842267173124,5.92095591380479,-0.0920652026690378,3,15.5,29.9
1.06666666666667,11.7950222331424,23.0380978123167,5.82890827613581,-0.0920476376689878,3,15.5,29.9
1.1,11.794651888683,23.2308891675139,5.7386003846943,-0.0903078914415048,3,15.5,29.9
1.13333333333333,11.7942741761589,23.4206705281051,5.64830993023554,-0.0902904544587599,3,15.5,29.9
1.16666666666667,11.7938896423561,23.6074711812503,5.55975897197929,-0.0885509582562518,3,15.5,29.9
1.2,11.7934989359434,23.7912917060443,5.46950302756753,-0.0902559444117585,3,15.5,29.9
1.23333333333333,11.7931027741783,23.972103977847,5.37926433403783,-0.0902386935296979,3,15.5,29.9
1.26666666666667,11.7927018709987,24.1498798711759,5.28732074905417,-0.0919435849836656,3,15.5,29.9
1.3,11.7922969624926,24.3245621957627,5.1936506297596,-0.0936701192945693,3,15.5,29.9
1.33333333333333,11.7918888016396,24.4960650624093,5.09655381889801,-0.0970968108615873,3,15.5,29.9
1.36666666666667,11.7914782182313,24.6642451849124,4.99428672411645,-0.102267094781562,3,15.5,29.9
1.4,11.7910660875242,24.8289302261666,4.88684986149381,-0.107436862622639,3,15.5,29.9
1.43333333333333,11.7906533560183,24.9899188020335,4.77249984493536,-0.114350016558449,3,15.5,29.9
1.46666666666667,11.7902410655686,25.1469808497918,4.65125920547473,-0.121240639460636,3,15.5,29.9
1.5,11.7898302580912,25.299914371928,4.52476108455736,-0.126498120917364,3,15.5,29.9
1.53333333333333,11.7894219877344,25.4485426768158,4.39295592087822,-0.131805163679147,3,15.4972222222222,29.9
1.56666666666667,11.7890174354634,25.5926606332791,4.25414718164799,-0.138808739230225,3,15.4888888888889,29.9
1.6,11.7886177759753,25.7320931680938,4.11183559234408,-0.142311589303914,3,15.475,29.9
1.63333333333333,11.7882241651854,25.8666952564651,3.96432403104145,-0.147511561302626,3,15.4555555555556,29.9
1.66666666666667,11.7878377864749,25.9963229524388,3.81337484343371,-0.15094918760774,3,15.4305555555556,29.9
1.7,11.7874597014039,26.1208902375273,3.66070171502645,-0.152673128407256,3,15.4,29.9
1.73333333333333,11.7870908971378,26.2403401726094,3.50633597734426,-0.154365737682194,3,15.3666666666667,29.9
1.76666666666667,11.7867324839496,26.3545586848672,3.34681840825871,-0.159517569085553,3,15.3333333333333,29.9
1.8,11.7863855520559,26.4634315432537,3.18559861354569,-0.161219794713014,3,15.3,29.9
1.83333333333333,11.786050875806,26.5669602060193,3.02616814474088,-0.159430468804817,3,15.2666666666667,29.9
1.86666666666667,11.78572904559,26.6652040009835,2.86850739798076,-0.157660746760118,3,15.2333333333333,29.9
1.9,11.7854206830438,26.758193252137,2.71089553038671,-0.157611867594046,3,15.2,29.9
1.93333333333333,11.785126283878,26.8459873890006,2.556799507786,-0.154096022600714,3,15.1666666666667,29.9
1.96666666666667,11.7848462909373,26.9286458585514,2.40275344621154,-0.15404606157446,3,15.1333333333333,29.9
2,11.7845812390571,27.0061703442028,2.2487575828962,-0.153995863315338,3,15.1,29.9
2.03333333333333,11.7843315802621,27.07856525313,2.09513855962175,-0.153619023274451,3,15.0666666666667,29.9
2.06666666666667,11.7840976081703,27.1458661790599,1.94334563834339,-0.151792921278358,3,15.0333333333333,29.9
2.1,11.7838794361643,27.2081502385602,1.79418675688938,-0.149158881454014,3,15,29.9
2.13333333333333,11.7836770795719,27.2655092693571,1.64784525395902,-0.14634150293036,3,14.9666666666667,29.9
2.16666666666667,11.783490582159,27.3180085471124,1.50260480142611,-0.145240452532908,3,14.9333333333333,29.9
2.2,11.7833201164524,27.3656559066316,1.35672922614622,-0.145875575279895,3,14.9,29.9
2.23333333333333,11.7831660824692,27.4083724832733,1.20676047984251,-0.149968746303707,3,14.8666666666667,29.9
2.26666666666667,11.7830290358031,27.4460222538389,1.05273179508762,-0.154028684754889,3,14.8333333333333,29.9
2.3,11.7829093538601,27.4785294321312,0.898250542862679,-0.154481252224942,3,14.8,29.9
2.33333333333333,11.7828070527164,27.5059404545326,0.74697282160771,-0.151277721254969,3,14.7666666666667,29.9
2.36666666666667,11.7827219636143,27.5283615451267,0.598843685914355,-0.148129135693355,3,14.7333333333333,29.9
2.4,11.7826539067873,27.5458975980701,0.45388932959222,-0.144954356322135,3,14.7,29.9
2.43333333333333,11.7826026757243,27.5586559767378,0.312184319511676,-0.141705010080543,3,14.6666666666667,29.9
2.46666666666667,11.7825679534915,27.5667733668958,0.17541979300922,-0.136764526502456,3,14.6333333333333,29.9
2.5,11.782549313903,27.5704144422804,0.0436696592119787,-0.131750133797241,3,14.6,29.9
2.53333333333333,11.782545174421,27.5701217417277,0.0261994731488351,-0.0174701860631436,5,14.5666666666667,29.9
2.56666666666667,11.7825455223697,27.56924964051,0.00143256003421302,-0.0247669131146221,3,14.5333333333333,29.9
2.6,11.7825455223697,27.56924964051,0.00209196028155224,0.000659400247339222,5,14.5,29.9
2.63333333333333,11.7825455223697,27.56924964051,0.00330795594554215,0.0012159956639899,5,14.4666666666667,29.9
2.66666666666667,11.7825455223697,27.56924964051,0.00495002166708938,0.00164206572154723,5,14.4333333333333,29.9
2.7,11.7825455223697,27.56924964051,0.00683391349034418,0.00188389182325481,5,14.4,29.9
2.73333333333333,11.7825455223697,27.56924964051,0.00874995349004096,0.00191603999969678,5,14.3666666666667,29.9
2.76666666666667,11.7825455223697,27.56924964051,0.010489151444403,0.001739197954362,5,14.3333333333333,29.9
2.8,11.7825455223697,27.56924964051,0.0118652905674659,0.00137613912306292,5,14.3,29.9
2.83333333333333,11.7825455223697,27.56924964051,0.0127317405038151,0.000866449936349177,5,14.2666666666667,29.9
2.86666666666667,11.7825455223697,27.56924964051,0.0129923850374144,0.000260644533599346,5,14.2333333333333,29.9
2.9,11.7825455223697,27.56924964051,0.0126066200441321,-0.0003857649932823,5,14.2,29.9
2.93333333333333,11.7825455223697,27.56924964051,0.0115888563772796,-0.00101776366685254,5,14.1666666666667,29.9
2.96666666666667,11.7825455223697,27.56924964051,0.0100033317413078,-0.0015855246359718,5,14.1333333333333,29.9
3,11.7825455223697,27.56924964051,0.0079552856738083,-0.00204804606749946,5,14.1,29.9
3.03333333333333,11.7825455223697,27.56924964051,0.00557968317122387,-0.00237560250258443,5,14.0666666666667,29.9
3.06666666666667,11.7825455223697,27.56924964051,0.00302869435143901,-0.00255098881978486,5,14.0333333333333,29.9
3.1,11.7825455223697,27.56924964051,0.000459065359373647,-0.00256962899206536,5,14,29.9
3.13333333333333,11.7825455223697,27.56924964051,0.00197963071256629,0.00152056535319264,5,13.9666666666667,29.9
3.16666666666667,11.7825455223697,27.56924964051,0.00415507280099852,0.00217544208843223,5,13.9333333333333,29.9
3.2,11.7825455223697,27.56924964051,0.00596003929106077,0.00180496649006225,5,13.9,29.9
3.23333333333333,11.7825455223697,27.56924964051,0.00731770002347673,0.00135766073241596,5,13.8666666666667,29.9
3.26666666666667,11.7825455223697,27.56924964051,0.00818425718728753,0.000866557163810799,5,13.8333333333333,29.9
3.3,11.7825455223697,27.56924964051,0.00854904315677821,0.00036478596949068,5,13.8,29.9
3.33333333333333,11.7825455223697,27.56924964051,0.00843235171741857,-0.000116691439359639,5,13.7666666666667,29.9
3.36666666666667,11.7825455223697,27.56924964051,0.00788140527654046,-0.000550946440878114,5,13.7333333333333,29.9
3.4,11.7825455223697,27.56924964051,0.0069649416744364,-0.000916463602104062,5,13.7,29.9
3.43333333333333,11.7825455223697,27.56924964051,0.0057669407687752,-0.0011980009056612,5,13.6666666666667,29.9
3.46666666666667,11.7825455223697,27.56924964051,0.00438000670823073,-0.00138693406054446,5,13.6333333333333,29.9
3.5,11.7825455223697,27.56924964051,0.00289888267209981,-0.00148112403613092,5,13.6,29.9
3.53333333333333,11.7825455223697,27.56924964051,0.00141450830168554,-0.00148437437041427,5,13.5666666666667,29.9
3.56666666666667,11.7825455223697,27.56924964051,8.94435858643885e-06,-0.0014055639430991,5,13.5333333333333,29.9
3.6,11.7825455223697,27.56924964051,0.00124860728980452,0.00123966293121808,5,13.5,29.9
3.63333333333333,11.7825455223697,27.56924964051,0.0023045595024431,0.00105595221263858,5,13.4666666666667,29.9
3.66666666666667,11.7825455223697,27.56924964051,0.00312243770841991,0.000817878205976816,5,13.4333333333333,29.9
3.7,11.7825455223697,27.56924964051,0.0036831710650542,0.000560733356634282,5,13.4,29.9
3.73333333333333,11.7825455223697,27.56924964051,0.0039842991189264,0.000301128053872204,5,13.3666666666667,29.9
3.76666666666667,11.7825455223697,27.56924964051,0.0040382700753536,5.39709564271983e-05,5,13.3333333333333,29.9
3.8,11.7825455223697,27.56924964051,0.00387004248002481,-0.000168227595328794,5,13.3,29.9
3.83333333333333,11.7825455223697,27.56924964051,0.00351421971135377,-0.000355822768671035,5,13.2666666666667,29.9
3.86666666666667,11.7825455223697,27.56924964051,0.00301194745140229,-0.000502272259951475,5,13.2333333333333,29.9
3.9,11.7825455223697,27.56924964051,0.00240779043851817,-0.000604157012884129,5,13.2,29.9
3.93333333333333,11.7825455223697,27.56924964051,0.00174677913924911,-0.000661011299269058,5,13.1666666666667,29.9
3.96666666666667,11.7825455223697,27.56924964051,0.00107178271115641,-0.000674996428092697,5,13.1333333333333,29.9
4,11.7825455223697,27.56924964051,0.000421325071614999,-0.000650457639541411,5,13.1,29.9
4.03333333333333,11.7825455223697,27.56924964051,0.000172080768213791,-0.000249244303401208,5,13.0666666666667,29.9
4.06666666666667,11.7825455223697,27.56924964051,0.000683045814753503,0.000510965046539712,5,13.0333333333333,29.9
4.1,11.7825455223697,27.56924964051,0.00109386900336793,0.000410823188614425,5,13,29.9
4.13333333333333,11.7825455223697,27.56924964051,0.00139458778140105,0.000300718778033125,5,12.9666666666667,29.9
4.16666666666667,11.7825455223697,27.56924964051,0.00158257730527473,0.000187989523873673,5,12.9333333333333,29.9
4.2,11.7825455223697,27.56924964051,0.00166177908209361,7.92017768188789e-05,5,12.9,29.9
4.23333333333333,11.7825455223697,27.56924964051,0.00164165140256009,-2.01276795335167e-05,5,12.8666666666667,29.9
4.26666666666667,11.7825455223697,27.56924964051,0.0015359383492756,-0.00010571305328449,5,12.8333333333333,29.9
4.3,11.7825455223697,27.56924964051,0.00136135221095319,-0.000174586138322412,5,12.8,29.9
4.33333333333333,11.7825455223697,27.56924964051,0.00113625677403397,-0.000225095436919218,5,12.7666666666667,29.9
4.36666666666667,11.7825455223697,27.56924964051,0.000879427378241785,-0.000256829395792185,5,12.7333333333333,29.9
4.4,11.7825455223697,27.56924964051,0.000608949085343683,-0.000270478292898102,5,12.7,29.9
4.43333333333333,11.7825455223697,27.56924964051,0.000341298096923898,-0.000267650988419785,5,12.6666666666667,29.9
4.46666666666667,11.7825455223697,27.56924964051,9.06348674105634e-05,-0.000250663229513335,5,12.6333333333333,29.9
4.5,11.7825455223697,27.56924964051,0.000131678745552657,4.10438781420933e-05,5,12.6,29.9
4.53333333333333,11.7825455223697,27.56924964051,0.000317340592039493,0.000185661846486836,5,12.5666666666667,29.9
4.56666666666667,11.7825455223697,27.56924964051,0.000461162410870458,0.000143821818830965,5,12.5333333333333,29.9
4.6,11.7825455223697,27.56924964051,0.000560941823092541,9.97794122220833e-05,5,12.5,29.9
4.63333333333333,11.7825455223697,27.56924964051,0.000617184007900897,5.62421848083552e-05,5,12.4666666666667,29.9
4.66666666666667,11.7825455223697,27.56924964051,0.000632709222912473,1.55252150115764e-05,5,12.4333333333333,29.9
4.7,11.7825455223697,27.56924964051,0.000612183929931051,-2.05252929814222e-05,5,12.4,29.9
4.73333333333333,11.7825455223697,27.56924964051,0.000561612476434253,-5.0571453496798e-05,5,12.3666666666667,29.9
4.76666666666667,11.7825455223697,27.56924964051,0.000487823447139511,-7.37890292947415e-05,5,12.3333333333333,29.9
4.8,11.7825455223697,27.56924964051,0.000397980389249567,-8.9843057889944e-05,5,12.3,29.9
4.83333333333333,11.7825455223697,27.56924964051,0.00029914110820117,-9.88392810483975e-05,5,12.2666666666667,29.9
4.86666666666667,11.7825455223697,27.56924964051,0.000197883602996476,-0.000101257505204694,5,12.2333333333333,29.9
4.9,11.7825455223697,27.56924964051,0.000100010405122793,-9.78731978736837e-05,5,12.2,29.9
4.93333333333333,11.7825455223697,27.56924964051,1.03369931869072e-05,-8.96734119358855e-05,5,12.1666666666667,29.9
4.96666666666667,11.7825455223697,27.56924964051,6.74356012426244e-05,5.70986080557172e-05,5,12.1333333333333,29.9
5,11.7825455223697,27.56924964051,0.000130768657936001,6.33330566933771e-05,5,12.1,29.9
5.03333333333333,11.7825455223697,27.56924964051,0.000178262596931482,4.74939389954802e-05,5,12.0666666666667,29.9
5.06666666666667,11.7825455223697,27.56924964051,0.000209574070588677,3.13114736571953e-05,5,12.0333333333333,29.9
5.1,11.7825455223697,27.56924964051,0.00022528637878345,1.57123081947727e-05,5,12,29.9
5.13333333333333,11.7825455223697,27.56924964051,0.000226747035245615,1.46065646216577e-06,5,11.9666666666667,29.9
5.16666666666667,11.7825455223697,27.56924964051,0.000215886186765534,-1.08608484800814e-05,5,11.9333333333333,29.9
5.2,11.7825455223697,27.56924964051,0.000195028702909679,-2.0857483855855e-05,5,11.9,29.9
5.23333333333333,11.7825455223697,27.56924964051,0.000166711272209001,-2.83174307006784e-05,5,11.8666666666667,29.9
5.26666666666667,11.7825455223697,27.56924964051,0.000133513932710221,-3.31973394987793e-05,5,11.8333333333333,29.9
5.3,11.7825455223697,27.56924964051,9.79133009343305e-05,-3.56006317758908e-05,5,11.8,29.9
5.33333333333333,11.7825455223697,27.56924964051,6.2162503936464e-05,-3.57507969978665e-05,5,11.7666666666667,29.9
5.36666666666667,11.7825455223697,27.56924964051,2.82006064911028e-05,-3.39618974453612e-05,5,11.7333333333333,29.9
5.4,11.7825455223697,27.56924964051,2.40772198485329e-06,-2.57928845062495e-05,5,11.7,29.9
5.43333333333333,11.7825455223697,27.56924964051,2.85033466613593e-05,2.6095624676506e-05,5,11.6666666666667,29.9
5.46666666666667,11.7825455223697,27.56924964051,4.93371287054657e-05,2.08337820441063e-05,5,11.6333333333333,29.9
5.5,11.7825455223697,27.56924964051,6.45513388556839e-05,1.52142101502182e-05,5,11.6,29.9
5.53333333333333,11.7825455223697,27.56924964051,7.41424006595028e-05,9.59106180381895e-06,5,11.5666666666667,29.9
5.56666666666667,11.7825455223697,27.56924964051,7.84097340244253e-05,4.2673333649225e-06,5,11.5333333333333,29.9
5.6,11.7825455223697,27.56924964051,7.7895538887878e-05,-5.14195136547317e-07,5,11.5,29.9
5.63333333333333,11.7825455223697,27.56924964051,7.332014815343e-05,-4.57539073444799e-06,5,11.4666666666667,29.9
5.66666666666667,11.7825455223697,27.56924964051,6.55171419733473e-05,-7.80300618008271e-06,5,11.4333333333333,29.9
5.7,11.7825455223697,27.56924964051,5.53718101755486e-05,-1.01453317977988e-05,5,11.4,29.9
5.73333333333333,11.7825455223697,27.56924964051,4.37658350918591e-05,-1.16059750836895e-05,5,11.3666666666667,29.9
5.76666666666667,11.7825455223697,27.56924964051,3.1530299497756e-05,-1.2235535594103e-05,5,11.3333333333333,29.9
5.8,11.7825455223697,27.56924964051,1.94083545928453e-05,-1.21219449049108e-05,5,11.3,29.9
5.83333333333333,11.7825455223697,27.56924964051,8.02815418104733e-06,-1.13802004117979e-05,5,11.2666666666667,29.9
5.86666666666667,11.7825455223697,27.56924964051,2.11399213441538e-06,-5.91416204663195e-06,5,11.2333333333333,29.9
5.9,11.7825455223697,27.56924964051,1.06608468583923e-05,8.54685472397692e-06,5,11.2,29.9
5.93333333333333,11.7825455223697,27.56924964051,1.73928906695542e-05,6.73204381116191e-06,5,11.1666666666667,29.9
5.96666666666667,11.7825455223697,27.56924964051,2.22197379111677e-05,4.8268472416135e-06,5,11.1333333333333,29.9
6,11.7825455223697,27.56924964051,2.51658653955173e-05,2.94612748434962e-06,5,11.1,29.9
6.03333333333333,11.7825455223697,27.56924964051,2.63522771891512e-05,1.18641179363389e-06,5,11.0666666666667,29.9
6.06666666666667,11.7825455223697,27.56924964051,2.59757058855108e-05,-3.76571303640376e-07,5,11.0333333333333,29.9
6.1,11.7825455223697,27.56924964051,2.42868443202754e-05,-1.68886156523544e-06,5,11,29.9
6.13333333333333,11.7825455223697,27.56924964051,2.15689294496542e-05,-2.71791487062116e-06,5,10.9666666666667,29.9
6.16666666666667,11.7825455223697,27.56924964051,1.81177816801995e-05,-3.45114776945472e-06,5,10.9333333333333,29.9
6.2,11.7825455223697,27.56924964051,1.42241573703368e-05,-3.89362430986271e-06,5,10.9,29.9
6.23333333333333,11.7825455223697,27.56924964051,1.0159017154622e-05,-4.06514021571484e-06,5,10.8666666666667,29.9
6.26666666666667,11.7825455223697,27.56924964051,6.16206362193683e-06,-3.99695353268515e-06,5,10.8333333333333,29.9
6.3,11.7825455223697,27.56924964051,2.43367145221467e-06,-3.72839216972216e-06,5,10.8,29.9
6.33333333333333,11.7825455223697,27.56924964051,8.69868867978375e-07,-1.5638025842363e-06,5,10.7666666666667,29.9
6.36666666666667,11.7825455223697,27.56924964051,3.63803949389793e-06,2.76817062591955e-06,5,10.7333333333333,29.9
6.4,11.7825455223697,27.56924964051,5.80508960469854e-06,2.16705011080061e-06,5,10.7,29.9
6.43333333333333,11.7825455223697,27.56924964051,7.3467976710455e-06,1.54170806634696e-06,5,10.6666666666667,29.9
