Time,x_ego,y_ego,velocity,acceleration,action,x_ped,y_ped
0,11.8,15.9,7,0,1,15.5,29.9
0.0333333333333333,11.8,16.1332703793943,6.99615577953002,-0.00384422046998356,1,15.5,29.9
0.0666666666666667,11.8,16.3664065988113,6.99196947109348,-0.00418630843653833,1,15.5,29.9
0.1,11.8,16.5994007552791,6.98769498718995,-0.00427448390352669,1,15.5,29.9
0.133333333333333,11.8,16.8322537852842,6.9834976545359,-0.00419733265404787,1,15.5,29.9
0.166666666666667,11.8,17.0649678802301,6.97935585456763,-0.00414179996826913,1,15.5,29.9
0.2,11.8,17.2975446186632,6.97525409491249,-0.00410175965514537,1,15.5,29.9
0.233333333333333,11.8,17.5299851399444,6.97118127319767,-0.00407282171482137,1,15.5,29.9
0.266666666666667,11.8,17.7622902687052,6.96712943294736,-0.00405184025031069,1,15.5,29.9
0.3,11.8,17.9944606040335,6.96309287213007,-0.00403656081728965,1,15.5,29.9
0.333333333333333,11.8,18.2264965833863,6.95906750439986,-0.00402536773020401,1,15.5,29.9
0.366666666666667,11.8,18.4583985283897,6.95505040137947,-0.00401710302039238,1,15.5,29.9
0.4,11.8,18.6901666776599,6.95103946463339,-0.00401093674607722,1,15.5,29.9
0.433333333333333,11.8,18.9218012103233,6.94703319054231,-0.00400627409108711,1,15.5,29.9
0.466666666666667,11.8,19.1533022628712,6.94303050173604,-0.00400268880626342,1,15.5,29.9
0.5,11.8,19.3846699412377,6.93903062623031,-0.00399987550573222,1,15.5,29.9
0.533333333333333,11.8,19.6159043294559,6.93503301077307,-0.00399761545723631,1,15.5,29.9
0.566666666666667,11.8,19.8470054958598,6.93103725873891,-0.00399575203416092,1,15.5,29.9
0.6,11.8,20.0779734975296,6.92704308564579,-0.003994173093127,1,15.5,29.9
0.633333333333333,11.7999959021531,20.3088083834707,6.92305029571969,-0.0039927899260972,1,15.5,29.9
0.666666666666667,11.7999710749424,20.5395101966972,6.91905879912278,-0.00399149659690767,1,15.5,29.9
0.7,11.7999159377453,20.7700789750818,6.91506850453275,-0.00399029459003408,1,15.5,29.9
0.733333333333333,11.7998294623792,21.0005147522078,6.9110792843104,-0.00398922022234505,1,15.5,29.9
0.766666666666667,11.7997149174431,21.2308175589855,6.90709098618076,-0.00398829812964241,1,15.5,29.9
0.8,11.7995823983126,21.4609874264527,6.90310349504694,-0.00398749113381669,1,15.5,29.9
0.833333333333333,11.7994434179337,21.6910243874032,6.8991168358376,-0.00398665920934782,1,15.5,29.9
0.866666666666667,11.7993060150896,21.9209284754685,6.89513107370585,-0.00398576213174273,1,15.5,29.9
0.9,11.7991746500299,22.1506997237421,6.89114623795111,-0.00398483575474096,1,15.5,29.9
0.933333333333333,11.7990513198184,22.3803381640429,6.88716232501666,-0.0039839129344541,1,15.5,29.9
0.966666666666667,11.7989365515759,22.6098438268382,6.88317931704621,-0.00398300797044993,1,15.5,29.9
1,11.7988301034982,22.8392167415439,6.87919719563146,-0.00398212141474819,1,15.5,29.9
1.03333333333333,11.7987313688903,23.0684569369039,6.87521594725957,-0.00398124837189151,1,15.5,29.9
1.06666666666667,11.7986395511026,23.2975644412831,6.87123556348284,-0.00398038377672449,1,15.5,29.9
1.1,11.7985537059739,23.5265392828451,6.86725603929764,-0.00397952418520653,1,15.5,29.9
1.13333333333333,11.7984727417629,23.7553814896458,6.86327737161311,-0.00397866768452637,1,15.5,29.9
1.16666666666667,11.7983954382784,23.9840910896852,6.85929955833266,-0.00397781328045532,1,15.5,29.9
1.2,11.7983205113286,24.2126681109434,6.85532259795832,-0.00397696037433892,1,15.5,29.9
1.23333333333333,11.7982467173831,24.4411125814132,6.85134648947499,-0.00397610848332786,1,15.5,29.9
1.26666666666667,11.7981729735359,24.6694245291315,6.84737123229336,-0.00397525718162761,1,15.5,29.9
1.3,11.7980984616298,24.8976039822078,6.84339682612517,-0.00397440616819011,1,15.5,29.9
1.33333333333333,11.7980226908171,25.1256509688437,6.83942327078715,-0.00397355533801669,1,15.5,29.9
1.36666666666667,11.79794550547,25.3535655173376,6.83545056601724,-0.00397270476991807,1,15.5,29.9
1.4,11.797866998718,25.5813476560576,6.83147871136286,-0.00397185465437833,1,15.5,29.9
1.43333333333333,11.7977873343397,25.8089974133803,6.82750770631477,-0.00397100504808368,1,15.5,29.9
1.46666666666667,11.7977059890235,26.0365148174236,6.82353755081125,-0.00397015550352187,1,15.5,29.9
1.5,11.797619812087,26.2638998953544,6.81956824762976,-0.00396930318149291,1,15.5,29.9
1.53333333333333,11.7975263278558,26.4911526745111,6.81559979848065,-0.00396844914910766,1,15.4916666666667,29.9
1.56666666666667,11.7974243172332,26.7182731825573,6.8116322015131,-0.00396759696754856,1,15.4666666666667,29.9
1.6,11.797313402811,26.9452614473323,6.80766545305954,-0.0039667484535677,1,15.425,29.9
1.63333333333333,11.7971936999794,27.1721174967689,6.80369954977309,-0.00396590328644386,1,15.3752276867031,29.9
1.66666666666667,11.7970655684889,27.3988413588603,6.79973448963873,-0.00396506013435971,1,15.3259107468124,29.9
1.7,11.7969294637618,27.6254330616522,6.79577027191454,-0.00396421772419231,1,15.2770491803279,29.9
1.73333333333333,11.7967858656684,27.8518926332431,6.79180689659834,-0.00396337531619828,1,15.2286429872495,29.9
1.76666666666667,11.7966352543195,28.0782201017837,6.78784436390767,-0.00396253269066893,1,15.1806921675774,29.9
1.8,11.7964781047938,28.3044154954722,6.78388267397767,-0.00396168992999879,1,15.1331967213115,29.9
1.83333333333333,11.7963148813776,28.5304788425421,6.77992182677537,-0.00396084720230849,1,15.0861566484517,29.9
1.86666666666667,11.796146022544,28.7564101712414,6.77596182214521,-0.003960004630156,1,15.0395719489982,29.9
1.9,11.795971917116,28.9822095098068,6.77200265989619,-0.00395916224901516,1,14.9934426229508,29.9
1.93333333333333,11.7957928778378,29.207876886436,6.76804433986846,-0.00395832002773311,1,14.9477686703097,29.9
1.96666666666667,11.7956091203815,29.4334123292639,6.76408686195261,-0.00395747791585066,1,14.9025500910747,29.9
2,11.7954207542663,29.6588158663473,6.76013022606488,-0.00395663588773232,1,14.8577868852459,29.9
2.03333333333333,11.795227788615,29.8840875256609,6.7561744320991,-0.0039557939657815,1,14.8134790528233,29.9
2.06666666666667,11.7950301516211,30.1092273351043,6.75221947987942,-0.00395495221968023,1,14.7696265938069,29.9
2.1,11.7948277193215,30.3342353225181,6.74826536912986,-0.00395411074955909,1,14.7262295081967,29.9
2.13333333333333,11.794620347538,30.5591115157049,6.74431209946603,-0.00395326966382648,1,14.6832877959927,29.9
2.16666666666667,11.7944079008463,30.7838559424516,6.7403596704066,-0.00395242905943149,1,14.6408014571949,29.9
2.2,11.7941902738775,31.008468630547,6.73640808139894,-0.00395158900765491,1,14.5987704918033,29.9
2.23333333333333,11.7939674025305,31.2329496077942,6.73245733185303,-0.00395074954591657,1,14.5571948998179,29.9
2.26666666666667,11.7937392651158,31.4572989020146,6.7285074211773,-0.00394991067573258,1,14.5160746812386,29.9
2.3,11.7935058754418,31.6815165410457,6.72455834881025,-0.00394907236704256,1,14.4754098360656,29.9
2.33333333333333,11.7932672710514,31.9056025527329,6.7206101142419,-0.00394823456835347,1,14.4352003642987,29.9
2.36666666666667,11.7930235000885,32.1295569649195,6.71666271702157,-0.00394739722033233,1,14.3954462659381,29.9
2.4,11.7927746097606,32.353379805437,6.7127161567522,-0.00394656026936513,1,14.3561475409836,29.9
2.43333333333333,11.7925206383336,32.5770711020971,6.70877043307472,-0.00394572367747958,1,14.3173041894353,29.9
2.46666666666667,11.7922616113874,32.800630882688,6.70482554564799,-0.00394488742672738,1,14.2789162112933,29.9
2.5,11.7919975419756,33.0240591749729,6.70088149413003,-0.00394405151796562,1,14.2409836065574,29.9
2.53333333333333,11.7917284335852,33.2473560066929,6.69693827816431,-0.00394321596571778,1,14.2035063752277,29.9
2.56666666666667,11.7914542844617,33.4705214055705,6.692995897373,-0.00394238079130993,1,14.1664845173042,29.9
2.6,11.791175091935,33.6935553993136,6.68905435135667,-0.00394154601633012,1,14.1299180327869,29.9
2.63333333333333,11.7908908557332,33.9164580156191,6.68511363969894,-0.00394071165773102,1,14.0938069216758,29.9
2.66666666666667,11.7906015797703,34.1392292821754,6.6811737619737,-0.00393987772524351,1,14.0581511839709,29.9
2.7,11.7903072723776,34.3618692266622,6.6772347177527,-0.00393904422100011,1,14.0229508196721,29.9
2.73333333333333,11.7900079453262,34.58437787675,6.67329650661171,-0.00393821114098358,1,13.9882058287796,29.9
2.76666666666667,11.789703612187,34.8067552600985,6.66935912813424,-0.00393737847747655,1,13.9539162112933,29.9
2.8,11.7893942865972,35.0290014043543,6.66542258191243,-0.00393654622180772,1,13.9200819672131,29.9
2.83333333333333,11.7890799808887,35.2511163371497,6.66148686754579,-0.00393571436664075,1,13.9200819672131,29.9
2.86666666666667,11.7887607053342,35.4731000861011,6.6575519846384,-0.00393488290739175,1,13.9200819672131,29.9
2.9,11.78843646806,35.6949526788094,6.65361793279576,-0.00393405184263607,1,13.9200819672131,29.9
2.93333333333333,11.7881072755001,35.9166741428599,6.64968471162208,-0.00393322117367845,1,13.9200819672131,29.9
2.96666666666667,11.7877731331642,36.1382645058237,6.64575232071855,-0.00393239090352804,1,13.9200819672131,29.9
3,11.7874340464682,36.3597237952585,6.64182075968281,-0.00393156103574555,1,13.9200819672131,29.9
3.03333333333333,11.7870900214165,36.5810520387096,6.63789002810941,-0.0039307315733943,1,13.9200819672131,29.9
3.06666666666667,11.7867410650061,36.8022492637107,6.63396012559105,-0.00392990251836167,1,13.9200819672131,29.9
3.1,11.7863871853171,37.0233154977838,6.63003105171994,-0.00392907387111219,1,13.9200819672131,29.9
3.13333333333333,11.7860283913365,37.244250768439,6.62610280608911,-0.00392824563082961,1,13.9200819672131,29.9
3.16666666666667,11.7856646926124,37.4650551031744,6.62217538829329,-0.00392741779582106,1,13.9200819672131,29.9
3.2,11.785296098856,37.6857285294754,6.61824879792923,-0.00392659036406062,1,13.9200819672131,29.9
3.23333333333333,11.7849226195935,37.9062710748138,6.61432303459556,-0.00392576333366623,1,13.9200819672131,29.9
3.26666666666667,11.7845442639364,38.1266827666483,6.61039809789229,-0.00392493670326832,1,13.9200819672131,29.9
3.3,11.7841610404967,38.3469636324234,6.60647398742015,-0.00392411047214569,1,13.9200819672131,29.9
3.33333333333333,11.783772957434,38.56711369957,6.60255070277995,-0.00392328464020331,1,13.9200819672131,29.9
3.36666666666667,11.7833800225931,38.7871329955056,6.59862824357214,-0.00392245920780354,1,13.9200819672131,29.9
3.4,11.7829822436806,39.0070215476345,6.59470660939661,-0.00392163417552993,1,13.9200819672131,29.9
3.43333333333333,11.7825796284313,39.2267793833478,6.59078579985267,-0.00392080954394203,1,13.9200819672131,29.9
3.46666666666667,11.7821721847275,39.446406530024,6.58686581453926,-0.00391998531341287,1,13.9200819672131,29.9
