Time,x_ego,y_ego,velocity,acceleration,action,x_ped,y_ped
0,11.8,8.9,5,0,1,15.5,29.9
0.0333333333333333,11.8,9.06660768884189,4.99642261439338,-0.0035773856066168,1,15.4502170138889,29.9
0.0666666666666667,11.8,9.23309265311448,4.99264756783477,-0.00377504655861216,1,15.4008680555556,29.9
0.1,11.8,9.39944929692399,4.98873130122091,-0.00391626661385835,1,15.351953125,29.9
0.133333333333333,11.8,9.56567362451385,4.98471426828108,-0.00401703293983147,1,15.3034722222222,29.9
0.166666666666667,11.8,9.7317627870126,4.98062546389497,-0.00408880438611448,1,15.2554253472222,29.9
0.2,11.8,9.89771475756689,4.97648566969706,-0.00413979419790333,1,15.2078125,29.9
0.233333333333333,11.8,10.063528098494,4.97230978036584,-0.00417588933122204,1,15.1606336805556,29.9
0.266666666666667,11.8,10.2292017943893,4.96810847105553,-0.00420130931030815,1,15.1138888888889,29.9
0.3,11.8,10.3947351325064,4.96388939262275,-0.00421907843277847,1,15.067578125,29.9
0.333333333333333,11.8,10.5601276170202,4.95965802839236,-0.00423136423039949,1,15.0217013888889,29.9
0.366666666666667,11.8,10.7253789075748,4.95541830829244,-0.00423972009991047,1,14.9762586805556,29.9
0.4,11.8,10.8904887752388,4.95117304903021,-0.00424525926223307,1,14.93125,29.9
0.433333333333333,11.8,11.0554570709351,4.94692426953351,-0.00424877949670321,1,14.8866753472222,29.9
0.466666666666667,11.8,11.2202837028143,4.94267341695966,-0.00425085257384605,1,14.8425347222222,29.9
0.5,11.8,11.3849686200364,4.93842152859998,-0.00425188835968093,1,14.798828125,29.9
0.533333333333333,11.8,11.5495118011469,4.93416934785826,-0.00425218074171951,1,14.7555555555556,29.9
0.566666666666667,11.7999964297647,11.7139132457405,4.92991741669681,-0.00425193116145461,1,14.7127170138889,29.9
0.6,11.7999735071378,11.8781729683162,4.92566620162261,-0.00425121507420201,1,14.6703125,29.9
0.633333333333333,11.7999175594678,12.0422909930855,4.92141608560266,-0.00425011601994196,1,14.6283420138889,29.9
0.666666666666667,11.7998206823442,12.2062673496828,4.9171672862134,-0.00424879938926015,1,14.5868055555556,29.9
0.7,11.7996797686076,12.3701020705803,4.91291986814998,-0.00424741806341888,1,14.545703125,29.9
0.733333333333333,11.7994952984756,12.5337951902856,4.90867380888632,-0.00424605926366795,1,14.5050347222222,29.9
0.766666666666667,11.7992701470121,12.6973467457073,4.90442906514615,-0.00424474374016182,1,14.4648003472222,29.9
0.8,11.7990085645037,12.8607567768919,4.90018561353312,-0.0042434516130303,1,14.425,29.9
0.833333333333333,11.7987153921983,13.0240253275284,4.89594346292827,-0.00424215060485533,1,14.3856336805556,29.9
0.866666666666667,11.798395506849,13.1871524449505,4.89170264877274,-0.00424081415552902,1,14.3467013888889,29.9
0.9,11.7980534491859,13.3501381796423,4.88746322086775,-0.0042394279049871,1,14.308203125,29.9
0.933333333333333,11.7976931815365,13.5129825844112,4.88322523226031,-0.00423798860744373,1,14.2701388888889,29.9
0.966666666666667,11.7973179299992,13.6756857134242,4.87898873203602,-0.00423650022428834,1,14.2325086805556,29.9
1,11.796930086076,13.8382476212783,4.87475376179839,-0.00423497023763275,1,14.1953125,29.9
1.03333333333333,11.796531734758,14.0006683630056,4.8705203001387,-0.00423346165968397,1,14.1585503472222,29.9
1.06666666666667,11.7961260581658,14.1629479958515,4.86628835388175,-0.00423194625694912,1,14.1222222222222,29.9
1.1,11.7957151171966,14.3250865762867,4.86205798558067,-0.00423036830108714,1,14.086328125,29.9
1.13333333333333,11.7952994036118,14.4870841586849,4.85782923457254,-0.00422875100812359,1,14.0508680555556,29.9
1.16666666666667,11.7948781888877,14.648940795246,4.85360211904271,-0.00422711552983035,1,14.0158420138889,29.9
1.2,11.7944493718074,14.8106565352594,4.84937668296617,-0.0042254360765428,1,13.98125,29.9
1.23333333333333,11.7940085089012,14.9722314227581,4.84515293877532,-0.00422374419084726,1,13.9470920138889,29.9
1.26666666666667,11.7935502882895,15.1336654985487,4.8409309393428,-0.00422199943252188,1,13.9133680555556,29.9
1.3,11.7930659429813,15.2949587943729,4.83671076888794,-0.00422017045486633,1,13.9133680555556,29.9
1.33333333333333,11.7925453185956,15.4561109721974,4.83247072293712,-0.00424004595081495,1,13.9133680555556,29.9
1.36666666666667,11.7919768035772,15.6169196783757,4.81611259375411,-0.0163581291830077,1,13.9133680555556,29.9
1.4,11.7913478638656,15.7771255447135,4.79631437778345,-0.0197982159706624,3,13.9133680555556,29.9
1.43333333333333,11.7906469153394,15.9366134839487,4.77305551403711,-0.0232588637463405,3,13.9133680555556,29.9
1.46666666666667,11.7898683301782,16.0952971591508,4.74808086544821,-0.0249746485888966,3,13.9133680555556,29.9
1.5,11.7890121428245,16.2531480481476,4.72311315878132,-0.0249677066668896,3,13.9133680555556,29.9
1.53333333333333,11.7880840603496,16.4100221343185,4.68949828311658,-0.0336148756647443,3,13.9133680555556,29.9
1.56666666666667,11.7870973743739,16.5656599390039,4.64895957805356,-0.0405387050630166,3,13.9133680555556,29.9
1.6,11.7860688177442,16.7198024341211,4.59979852507416,-0.0491610529794073,3,13.9133680555556,29.9
1.63333333333333,11.7850165407874,16.8721906860552,4.54371776884761,-0.056080756226546,3,13.9133680555556,29.9
1.66666666666667,11.7839595632148,17.0227097358371,4.4876518766248,-0.0560658922228061,3,13.9133680555556,29.9
1.7,11.7829148371463,17.1714466970428,4.4367906477901,-0.0508612288347008,3,13.9133680555556,29.9
1.73333333333333,11.7818972995443,17.3185464749062,4.38941262779951,-0.0473780199905942,3,13.9133680555556,29.9
1.76666666666667,11.7809166416637,17.4640961845089,4.34377413928606,-0.0456384885134486,3,13.9133680555556,29.9
1.8,11.7799782320931,17.6081542085324,4.29989692363323,-0.0438772156528335,3,13.9133680555556,29.9
1.83333333333333,11.7790821581104,17.7507788881434,4.25775886350858,-0.0421380601246506,3,13.9133680555556,29.9
1.86666666666667,11.7782242834449,17.8919707545837,4.21391518833265,-0.0438436751759212,3,13.9133680555556,29.9
1.9,11.7773975063293,18.0317016098477,4.17008789863466,-0.0438272896979912,3,13.9133680555556,29.9
1.93333333333333,11.7765929706888,18.1699428780182,4.12453291308833,-0.0455549855463309,3,13.9133680555556,29.9
1.96666666666667,11.7758012899099,18.3066659805201,4.07899430726983,-0.0455386058185061,3,13.9133680555556,29.9
2,11.7750132811491,18.4419004741387,4.03521605747507,-0.0437782497947588,3,13.9133680555556,29.9
2.03333333333333,11.7742210895627,18.5756759179075,3.9914540338662,-0.0437620236088643,3,13.9133680555556,29.9
2.06666666666667,11.7734185930944,18.7080502139006,3.95115237601676,-0.0403016578494424,3,13.9133680555556,29.9
2.1,11.7726018461358,18.8390812626791,3.91086622746928,-0.0402861485474815,3,13.9133680555556,29.9
2.13333333333333,11.7717694182149,18.9687695590734,3.87059522719258,-0.0402710002766997,3,13.9133680555556,29.9
2.16666666666667,11.7709218701473,19.0971156007793,3.83033905818494,-0.0402561690076433,3,13.9133680555556,29.9
2.2,11.7700611868052,19.2241489541346,3.79184137946951,-0.0384976787154234,3,13.9133680555556,29.9
2.23333333333333,11.7691904192841,19.349899183024,3.75335782756879,-0.0384835519007223,3,13.9133680555556,29.9
2.26666666666667,11.7683132918882,19.474366781036,3.71488816621025,-0.0384696613585409,3,13.9133680555556,29.9
2.3,11.7674335150155,19.5975522369644,3.67643225505564,-0.0384559111546054,3,13.9133680555556,29.9
2.33333333333333,11.766554362953,19.7194560336095,3.63799002746266,-0.0384422275929808,3,13.9133680555556,29.9
2.36666666666667,11.7656785698694,19.8400495814644,3.59781753708565,-0.0401724903770124,3,13.9133680555556,29.9
2.4,11.7648078470162,19.9593333536487,3.55940287509061,-0.0384146619950414,3,13.9133680555556,29.9
2.43333333333333,11.7639430751037,20.0773078168944,3.51925806574844,-0.0401448093421704,3,13.9133680555556,29.9
2.46666666666667,11.7630846049971,20.1939443686739,3.47912723426546,-0.0401308314829749,3,13.9133680555556,29.9
2.5,11.7622318985455,20.3092725365233,3.44075437184342,-0.0383728624220403,3,13.9133680555556,29.9
2.53333333333333,11.7613841024262,20.4233218422992,3.40239533782057,-0.0383590340228586,3,13.9133680555556,29.9
2.56666666666667,11.7605404293479,20.5360927367996,3.36405001363472,-0.038345324185848,3,13.9133680555556,29.9
2.6,11.7597001274096,20.6475856678913,3.32571829099009,-0.0383317226446294,3,13.9133680555556,29.9
2.63333333333333,11.7588621962041,20.7578588491094,3.29086613230519,-0.0348521586848962,3,13.9133680555556,29.9
2.66666666666667,11.7580254253155,20.8670278883613,3.25947119743457,-0.0313949348706197,3,13.9133680555556,29.9
2.7,11.7571891621357,20.9751506068932,3.22808849701857,-0.0313827004160068,3,13.9133680555556,29.9
2.73333333333333,11.7563532962529,21.0822274055415,3.19671762987235,-0.0313708671462125,3,13.9133680555556,29.9
2.76666666666667,11.7555178501067,21.1882586746626,3.16535831637317,-0.0313593134991832,3,13.9133680555556,29.9
2.8,11.7546829550366,21.293244797059,3.1340103617651,-0.031347954608071,3,13.9133680555556,29.9
2.83333333333333,11.753848833603,21.3971861500785,3.1026736269392,-0.0313367348259033,3,13.9133680555556,29.9
2.86666666666667,11.7530157881521,21.5000831071304,3.07134800667208,-0.0313256202671184,3,13.9133680555556,29.9
2.9,11.752184191795,21.6019360387657,3.04003341513328,-0.0313145915387993,3,13.9133680555556,29.9
2.93333333333333,11.7513544766009,21.7027453134113,3.00872977783948,-0.0313036372938025,3,13.9133680555556,29.9
2.96666666666667,11.75052711487,21.8025112978159,2.97743702857004,-0.0312927492694364,3,13.9133680555556,29.9
3,11.7497025921601,21.9012343572649,2.94615510936275,-0.0312819192072884,3,13.9133680555556,29.9
3.03333333333333,11.7488813741745,21.9989148556225,2.91488397171305,-0.0312711376496972,3,13.9133680555556,29.9
3.06666666666667,11.7480634422542,22.0956109223971,2.88708965028567,-0.0277943214273844,3,13.9133680555556,29.9
3.1,11.7472482508431,22.1914384443249,2.86277168874318,-0.0243179615424896,3,13.9133680555556,29.9
3.13333333333333,11.7464349067407,22.286541990072,2.84365156668967,-0.0191201220535064,3,13.9133680555556,29.9
3.16666666666667,11.7456219328236,22.381123502043,2.83145040568981,-0.0122011609998673,2,13.9133680555556,29.9
3.2,11.7448074753268,22.4754139445712,2.82618856611865,-0.00526183957115167,2,13.9133680555556,29.9
3.23333333333333,11.7439904261235,22.5695290571107,2.82093220049972,-0.00525636561893572,2,13.9133680555556,29.9
3.26666666666667,11.7431704799445,22.6634690003467,2.81568027832617,-0.00525192217354986,2,13.9133680555556,29.9
3.3,11.7423470821904,22.7572629705645,2.81217599371556,-0.00350428461060703,2,13.9133680555556,29.9
3.33333333333333,11.7415197027522,22.8509401390484,2.80867465485438,-0.00350133886118309,2,13.9133680555556,29.9
3.36666666666667,11.7406881004779,22.9445005922811,2.80517575660302,-0.00349889825135863,2,13.9133680555556,29.9
3.4,11.7398521193947,23.0379444035316,2.80167892512798,-0.00349683147504098,2,13.9133680555556,29.9
3.43333333333333,11.739011694027,23.1312716368328,2.79818388394346,-0.00349504118452293,2,13.9133680555556,29.9
3.46666666666667,11.7381668399586,23.224482349734,2.79469043264096,-0.00349345130249334,2,13.9133680555556,29.9
3.5,11.7373176344421,23.3175765951741,2.7911984328226,-0.00349199981835868,2,13.9133680555556,29.9
3.53333333333333,11.7364641927401,23.4105544227469,2.78770779686887,-0.00349063595372945,2,13.9133680555556,29.9
3.56666666666667,11.7356066454284,23.5034158795587,2.78421847683025,-0.00348932003862723,2,13.9133680555556,29.9
3.6,11.7347451204193,23.5961610108257,2.78073045252885,-0.00348802430139816,2,13.9133680555556,29.9
3.63333333333333,11.7338797314902,23.6887898603108,2.77724371943635,-0.00348673309249969,2,13.9133680555556,29.9
3.66666666666667,11.733010573183,23.7813024706585,2.77375827773562,-0.00348544170072751,2,13.9133680555556,29.9
3.7,11.7321377205223,23.8736988836598,2.77027412408135,-0.00348415365427579,2,13.9133680555556,29.9
3.73333333333333,11.7312612313332,23.9659791404616,2.76679124707431,-0.00348287700703986,2,13.9133680555556,29.9
3.76666666666667,11.7303811490506,24.0581432817242,2.76330962662784,-0.00348162044646294,2,13.9133680555556,29.9
3.8,11.7294975045997,24.150191347732,2.75982923654705,-0.00348039008079715,2,13.9133680555556,29.9
3.83333333333333,11.7286103168906,24.2421233784652,2.75635004902308,-0.00347918752396437,2,13.9133680555556,29.9
3.86666666666667,11.7277195923692,24.333939413643,2.75287203951311,-0.00347800950997312,2,13.9133680555556,29.9
3.9,11.7268253246283,24.4256394927542,2.74939519064382,-0.00347684886928956,2,13.9133680555556,29.9
3.93333333333333,11.7259274951871,24.5172236550883,2.74591949424577,-0.00347569639804624,2,13.9133680555556,29.9
3.96666666666667,11.725026076201,24.6086919397769,2.74244495123356,-0.00347454301221317,2,13.9133680555556,29.9
4,11.7241210352066,24.7000443883002,2.73897193546173,-0.00347301577183412,2,13.9133680555556,29.9
4.03333333333333,11.7232123407965,24.7912811078995,2.73550493998428,-0.00346699547744445,2,13.9133680555556,29.9
4.06666666666667,11.7222999674663,24.8824024631385,2.73205456440592,-0.00345037557836392,2,13.9133680555556,29.9
4.1,11.7213838945521,24.9734097973016,2.72876722730207,-0.00328733710384199,2,13.9133680555556,29.9
4.13333333333333,11.7204637841385,25.0643410219465,2.72815130394152,-0.000615923360553605,2,13.9133680555556,29.9
4.16666666666667,11.7195383375791,25.1553398203346,2.733128919242,0.00497761530047791,2,13.9133680555556,29.9
4.2,11.7186056167605,25.2466172540461,2.74501929212973,0.0118903728877342,2,13.9133680555556,29.9
4.23333333333333,11.7176633428338,25.3384157955833,2.76449117800176,0.0194718858720222,4,13.9133680555556,29.9
4.26666666666667,11.7167089874586,25.4309964109263,2.79201032031179,0.0275191423100347,4,13.9133680555556,29.9
4.3,11.7157398172791,25.5246313606612,2.82774455213888,0.0357342318270866,4,13.9133680555556,29.9
4.33333333333333,11.714753003654,25.6195909728401,2.87143051918514,0.0436859670462617,4,13.9133680555556,29.9
4.36666666666667,11.7137457230267,25.7161326538292,2.92258316519812,0.0511526460129805,4,13.9133680555556,29.9
4.4,11.71271521906,25.8144951904349,2.98057868106316,0.0579955158650383,4,13.9133680555556,29.9
4.43333333333333,11.7116588560681,25.914894972,3.04470573716511,0.0641270561019494,4,13.9133680555556,29.9
4.46666666666667,11.7105741623218,26.0175239511566,3.11421793271058,0.0695121955454776,4,13.9133680555556,29.9
4.5,11.7094588602345,26.1225492560467,3.18837688126883,0.0741589485582503,4,13.9133680555556,29.9
4.53333333333333,11.7083108871647,26.2301136731911,3.26646051050771,0.078083629238872,4,13.9133680555556,29.9
4.56666666666667,11.7071284082038,26.340336547367,3.34779094445154,0.0813304339438288,4,13.9133680555556,29.9
4.6,11.7059098131636,26.4533156966545,3.43175497198209,0.0839640275305569,4,13.9133680555556,29.9
4.63333333333333,11.704653704308,26.5691295902065,3.51780388927562,0.0860489172935259,4,13.9133680555556,29.9
4.66666666666667,11.7033588789248,26.6878394156105,3.605448702698,0.0876448134223864,4,13.9133680555556,29.9
4.7,11.7020238761957,26.8094908956599,3.69424250413012,0.0887938014321183,4,13.9133680555556,29.9
4.73333333333333,11.7006458538336,26.9341146144976,3.78372516125632,0.0894826571261924,4,13.9133680555556,29.9
4.76666666666667,11.6992217720321,27.061726689524,3.87350452941383,0.0897793681575139,4,13.9133680555556,29.9
4.8,11.6977472009098,27.1923317265372,3.96327998588801,0.0897754564741846,4,13.9133680555556,29.9
4.83333333333333,11.6962169196725,27.3259255318931,4.05282202149376,0.0895420356057421,4,13.9133680555556,29.9
4.86666666666667,11.6946271613682,27.4624972274947,4.14195608101882,0.0891340595250592,4,13.9133680555556,29.9
4.9,11.6929759505219,27.6020308761384,4.23055058213368,0.0885945011148603,4,13.9133680555556,29.9
4.93333333333333,11.6912627645744,27.7445067565909,4.31850713204818,0.0879565499145061,4,13.9133680555556,29.9
4.96666666666667,11.6894881205651,27.889902355354,4.40575741338357,0.087250281335387,4,13.9133680555556,29.9
5,11.6876531599168,28.0381935382123,4.49227215076889,0.0865147373853201,4,13.9133680555556,29.9
5.03333333333333,11.6857592844039,28.189355750769,4.57805043899297,0.0857782882240841,4,13.9133680555556,29.9
5.06666666666667,11.6838078810902,28.3433641179209,4.66305182532806,0.0850013863350858,4,13.9133680555556,29.9
5.1,11.6818001800339,28.5001890267794,4.74702260240469,0.0839707770766296,4,13.9133680555556,29.9
5.13333333333333,11.6797371724416,28.659793059592,4.82982748058188,0.08280487817719,4,13.9133680555556,29.9
5.16666666666667,11.677619490415,28.8221366175958,4.91139912922717,0.0815716486452942,4,13.9133680555556,29.9
5.2,11.6754474138003,28.987176292411,4.99160647290465,0.0802073436774728,4,13.9133680555556,29.9
5.23333333333333,11.6732208891488,29.1548651607868,5.07036572471798,0.0787592518133318,4,13.9133680555556,29.9
5.26666666666667,11.6709395674287,29.3251536757646,5.14761400497404,0.0772482802560637,4,13.9133680555556,29.9
5.3,11.668602836137,29.4979925648931,5.22344797797007,0.0758339729960325,4,13.9133680555556,29.9
5.33333333333333,11.6662098421998,29.6733374005832,5.29801895609697,0.0745709781268991,4,13.9133680555556,29.9
5.36666666666667,11.6637595885953,29.8511474334834,5.37140821687951,0.0733892607825393,4,13.9133680555556,29.9
5.4,11.6612510261907,30.0313846259538,5.44368813551524,0.0722799186357257,4,13.9133680555556,29.9
5.43333333333333,11.6586831369675,30.2140125658299,5.51489939160314,0.0712112560879028,4,13.9133680555556,29.9
5.46666666666667,11.6560549846569,30.3989965933059,5.58509160143941,0.0701922098362653,4,13.9133680555556,29.9
5.5,11.6533657611291,30.5863025695339,5.65425543084142,0.0691638294020107,4,13.9133680555556,29.9
5.53333333333333,11.6506147968291,30.7758966958914,5.7224291074947,0.068173676653287,4,13.9133680555556,29.9
5.56666666666667,11.6478015340454,30.9677466362296,5.78964427697107,0.0672151694763716,4,13.9133680555556,29.9
5.6,11.6449255172324,31.1618202237693,5.85588523109467,0.0662409541235922,4,13.9133680555556,29.9
5.63333333333333,11.6419863703819,31.3580846153811,5.92113012479875,0.0652448937040822,4,13.9133680555556,29.9
5.66666666666667,11.6389837669863,31.5565059965743,5.98533750507821,0.0642073802794627,4,13.9133680555556,29.9
5.7,11.6359174138692,31.7570486943678,6.0484414219675,0.0631039168892915,4,13.9133680555556,29.9
5.73333333333333,11.6327870494596,31.9596739614693,6.11027792593598,0.0618365039684816,4,13.9133680555556,29.9
5.76666666666667,11.6295925556443,32.1643316207325,6.1703204349072,0.0600425089712191,4,13.9133680555556,29.9
5.8,11.6263341038218,32.3709504240293,6.22787550659106,0.0575550716838515,4,13.9133680555556,29.9
5.83333333333333,11.6230122340154,32.5794340717531,6.28201549439,0.0541399877989432,4,13.9133680555556,29.9
5.86666666666667,11.6196271832068,32.7897572387708,6.34117373063852,0.0591582362485248,4,13.9133680555556,29.9
5.9,11.6161767621891,33.002219590914,6.40908695547483,0.0679132248363059,4,13.9133680555556,29.9
5.93333333333333,11.6126599633047,33.216998486223,6.47939221299527,0.0703052575204444,4,13.9133680555556,29.9
5.96666666666667,11.6090770667487,33.4341032898679,6.54817010907188,0.0687778960766066,4,13.9133680555556,29.9
6,11.6054290638644,33.6534383232558,6.61293849754576,0.0647683884738832,4,13.9133680555556,29.9
6.03333333333333,11.6017173974366,33.8748434781987,6.67225059322703,0.0593120956812641,4,13.9133680555556,29.9
6.06666666666667,11.5979438232208,34.0981224776877,6.72531527425128,0.0530646810242512,4,13.9133680555556,29.9
6.1,11.5941103720598,34.3230591165751,6.77172620892935,0.0464109346780726,4,13.9133680555556,29.9
6.13333333333333,11.5902192612476,34.5494314629799,6.81153633174994,0.0398101228205894,4,13.9133680555556,29.9
6.16666666666667,11.5862727756351,34.7770237530901,6.84505468445644,0.0335183527065013,4,13.9133680555556,29.9
6.2,11.5822731359387,35.005636174477,6.87290253749682,0.0278478530403801,4,13.9133680555556,29.9
6.23333333333333,11.578222396372,35.2350911841804,6.89574924705326,0.0228467095564406,4,13.9133680555556,29.9
