Time,x_ego,y_ego,velocity,acceleration,action,x_ped,y_ped
0,11.8,8.9,5,0,1,15.5,29.9
0.0333333333333333,11.8,9.06660768884189,4.99642261439338,-0.0035773856066168,1,15.5,29.9
0.0666666666666667,11.7999945656473,9.2330926531045,4.99264758919415,-0.00377502519923301,1,15.5,29.9
0.1,11.7999603185183,9.39944929648698,4.98873154244979,-0.00391604674435708,1,15.5,29.9
0.133333333333333,11.7998798337091,9.56567362060379,4.98471508763963,-0.00401645481016377,1,15.5,29.9
0.166666666666667,11.7997473060322,9.73176277012596,4.98062708783524,-0.00408799980438523,1,15.5,29.9
0.2,11.7995681571627,9.89771470961618,4.97648795226271,-0.00413913557253309,1,15.5,29.9
0.233333333333333,11.7993554410513,10.0635279952062,4.97231229435086,-0.00417565791185481,1,15.5,29.9
0.266666666666667,11.7991244261706,10.2292016111621,4.96811075753552,-0.00420153681533186,1,15.5,29.9
0.3,11.7988895122007,10.3947348507275,4.9638911683852,-0.00421958915032583,1,15.5,29.9
0.333333333333333,11.7986611976434,10.5601272273097,4.95965923949787,-0.00423192888732782,1,15.5,29.9
0.366666666666667,11.7984459420992,10.7253784096758,4.95541904219178,-0.00424019730608727,1,15.5,29.9
0.4,11.7982469558435,10.8904881757824,4.95117344400256,-0.00424559818922798,1,15.5,29.9
0.433333333333333,11.7980650053154,11.0554563804345,4.94692445582366,-0.00424898817889119,1,15.5,29.9
0.466666666666667,11.797898516227,11.2202829324308,4.94267350046452,-0.00425095535914899,1,15.5,29.9
0.5,11.7977426925066,11.3849677779291,4.93842157257099,-0.00425192789352202,1,15.5,29.9
0.533333333333333,11.7975922431484,11.549510891483,4.93416938061252,-0.00425219195846971,1,15.5,29.9
0.566666666666667,11.7974422993345,11.7139122688184,4.92991744367553,-0.00425193693699732,1,15.5,29.9
0.6,11.7972885577297,11.8781719210649,4.92566614045059,-0.00425130322493406,1,15.5,29.9
0.633333333333333,11.7971273908652,12.0422898705031,4.92141574501258,-0.00425039543801198,1,15.5,29.9
0.666666666666667,11.7969559596134,12.2062661475211,4.9171664535342,-0.00424929147837538,1,15.5,29.9
0.7,11.7967723207836,12.3701007885118,4.91291840416173,-0.00424804937247814,1,15.5,29.9
0.733333333333333,11.796575497212,12.5337938344578,4.908671691904,-0.00424671225772322,1,15.5,29.9
0.766666666666667,11.7963654728883,12.6973453299643,4.90442638026846,-0.00424531163554231,1,15.5,29.9
0.8,11.7961430890783,12.8607553225363,4.90018251092994,-0.00424386933852361,1,15.5,29.9
0.833333333333333,11.795909841613,13.0240238619503,4.89594011193326,-0.00424239899667267,1,15.5,29.9
0.866666666666667,11.7956669993404,13.1871509989856,4.89169922611409,-0.00424088581917292,1,15.5,29.9
0.9,11.7954138318136,13.3501367830462,4.88745988435682,-0.00423934175727325,1,15.5,29.9
0.933333333333333,11.7951491828625,13.5129812633475,4.88322211201725,-0.00423777233957168,1,15.5,29.9
0.966666666666667,11.7948698854529,13.6756844867019,4.87898595489584,-0.00423615712140979,1,15.5,29.9
1,11.794571324018,13.838246497567,4.8747514267571,-0.00423452813873926,1,15.5,29.9
1.03333333333333,11.7942502371105,14.0006673411447,4.87051850586948,-0.00423292088761951,1,15.5,29.9
1.06666666666667,11.7939050685068,14.1629470640637,4.86628716498725,-0.00423134088223254,1,15.5,29.9
1.1,11.793535583783,14.3250857143366,4.86205737708516,-0.00422978790208894,1,15.5,29.9
1.13333333333333,11.7931425089401,14.4870833413712,4.85782912068098,-0.00422825640417379,1,15.5,29.9
1.16666666666667,11.7927266516906,14.6489399950113,4.85360242799054,-0.00422669269043929,1,15.5,29.9
1.2,11.792287264342,14.8106557227121,4.84937732179332,-0.00422510619722427,1,15.5,29.9
1.23333333333333,11.7918241264359,14.9722305727115,4.84515377275548,-0.00422354903784328,1,15.5,29.9
1.26666666666667,11.7913379589259,15.133664595053,4.84093175567407,-0.0042220170814069,1,15.5,29.9
1.3,11.7908301177503,15.2949578413706,4.83671125364746,-0.00422050202661328,1,15.5,29.9
1.33333333333333,11.7903022683772,15.4561103644662,4.83249226032104,-0.00421899332641384,1,15.5,29.9
1.36666666666667,11.7897560909642,15.6171222177764,4.82827477945212,-0.00421748086892659,1,15.5,29.9
1.4,11.7891930531745,15.7779934548314,4.82405882220073,-0.00421595725139046,1,15.5,29.9
1.43333333333333,11.788613672964,15.9387241272828,4.81984445961345,-0.00421436258727681,1,15.5,29.9
1.46666666666667,11.7880160164019,16.0993142804338,4.81563173387761,-0.00421272573583842,1,15.5,29.9
1.5,11.7873981149211,16.2597639586223,4.81142061803077,-0.00421111584684031,1,15.5,29.9
1.53333333333333,11.7867586628986,16.4200732072111,4.80721108807871,-0.00420952995205948,1,15.5,29.9
1.56666666666667,11.7860969645108,16.5802420727956,4.80300312373224,-0.00420796434647119,1,15.5,29.9
1.6,11.7854128369209,16.740270603255,4.79879670911207,-0.00420641462017102,1,15.5,29.9
1.63333333333333,11.7847064944239,16.9001588476852,4.7945918330999,-0.00420487601216557,1,15.5,29.9
1.66666666666667,11.783978430682,17.0599068562452,4.79038848919229,-0.00420334390760946,1,15.5,29.9
1.7,11.7832293094071,17.2195146799432,4.78618667491958,-0.00420181427271249,1,15.5,29.9
1.73333333333333,11.7824598688498,17.3789823703824,4.78198639100382,-0.00420028391576022,1,15.5,29.9
1.76666666666667,11.7816708424395,17.5383099794899,4.77778764043575,-0.00419875056806873,1,15.5,29.9
1.8,11.7808623340509,17.697497557077,4.77359048871784,-0.00419715171790891,1,15.5,29.9
1.83333333333333,11.7800324045971,17.8565451448025,4.76939497215219,-0.00419551656564821,1,15.5,29.9
1.86666666666667,11.7791792954604,18.0154527840402,4.76520105409088,-0.00419391806131664,1,15.5,29.9
1.9,11.7783020066499,18.1742205184194,4.76100870340357,-0.00419235068730561,1,15.5,29.9
1.93333333333333,11.7774001609707,18.3328483937073,4.75681789616306,-0.00419080724051035,1,15.5,29.9
1.96666666666667,11.7764738396625,18.4913364574931,4.75262861643958,-0.00418927972348548,1,15.5,29.9
2,11.7755234261183,18.6496847588037,4.74844085582412,-0.00418776061545234,1,15.5,29.9
2.03333333333333,11.7745494783634,18.8078933477346,4.74425461188501,-0.0041862439391096,1,15.5,29.9
2.06666666666667,11.7735526364142,18.9659622751366,4.74006988614301,-0.00418472574200823,1,15.5,29.9
2.1,11.7725335602591,19.1238915923575,4.73588668218125,-0.0041832039617562,1,15.5,29.9
2.13333333333333,11.7714928890949,19.2816813510225,4.73170500428375,-0.00418167789750346,1,15.5,29.9
2.16666666666667,11.7704312121691,19.4393316028291,4.72752485670049,-0.00418014758325835,1,15.5,29.9
2.2,11.7693490445724,19.5968423993401,4.72334624340799,-0.0041786132925008,1,15.5,29.9
2.23333333333333,11.7682468056415,19.7542137917782,4.7191691681287,-0.00417707527929068,1,15.5,29.9
2.26666666666667,11.7671248014471,19.9114458308393,4.71499363438353,-0.00417553374517166,1,15.5,29.9
2.3,11.7659832149634,20.0685385665522,4.7108196454355,-0.00417398894802368,1,15.5,29.9
2.33333333333333,11.7648221075124,20.2254920482124,4.70664720408878,-0.00417244134672146,1,15.5,29.9
2.36666666666667,11.7636414332728,20.3823063244081,4.70247631239436,-0.00417089169441631,1,15.5,29.9
2.4,11.7624410658536,20.5389814431369,4.69830697135961,-0.00416934103475697,1,15.5,29.9
2.43333333333333,11.7612208331568,20.6955174519966,4.69413918076043,-0.00416779059917438,1,15.5,29.9
2.46666666666667,11.7599805548498,20.8519143984151,4.68997293912471,-0.00416624163572266,1,15.5,29.9
2.5,11.7587200762585,21.0081723298797,4.6858082439088,-0.00416469521590468,1,15.5,29.9
2.53333333333333,11.7574392934319,21.164291294125,4.68164509184135,-0.00416315206745921,1,15.5,29.9
2.56666666666667,11.7561381661986,21.3202713392524,4.67748347936892,-0.00416161247242641,1,15.5,29.9
2.6,11.754816718639,21.4761125137667,4.67332340311543,-0.00416007625348769,1,15.5,29.9
2.63333333333333,11.7534750288679,21.6318148665367,4.6691648602649,-0.00415854285053108,1,15.5,29.9
2.66666666666667,11.7521132118141,21.7873784466965,4.66500784879752,-0.00415701146738368,1,15.5,29.9
2.7,11.7507313994649,21.9428033035183,4.66085236754608,-0.0041554812514395,1,15.5,29.9
2.73333333333333,11.7493297227782,22.0980894862853,4.65669841608347,-0.004153951462607,1,15.5,29.9
2.76666666666667,11.7479082983534,22.2532370441898,4.65254599448919,-0.00415242159428075,1,15.5,29.9
2.8,11.7464672213824,22.4082460262722,4.64839510306369,-0.00415089142550418,1,15.5,29.9
2.83333333333333,11.7450065647857,22.5631164814037,4.64424574206014,-0.00414936100354613,1,15.5,29.9
2.86666666666667,11.7435263831516,22.7178484583073,4.64009791148692,-0.0041478305732241,1,15.5,29.9
2.9,11.7420267193697,22.8724420056019,4.635951611008,-0.00414630047891151,1,15.5,29.9
2.93333333333333,11.740507611742,23.0268971718543,4.63180683994154,-0.00414477106646061,1,15.5,29.9
2.96666666666667,11.7389690997757,23.1812140056239,4.62766359733467,-0.00414324260687238,1,15.5,29.9
3,11.7374112276111,23.3353925554912,4.62352188208038,-0.00414171525428753,1,15.5,29.9
3.03333333333333,11.7358340448712,23.4894328700651,4.61938169303969,-0.00414018904069646,1,15.5,29.9
3.06666666666667,11.7342376054247,23.6433349979745,4.61524302913881,-0.00413866390087403,1,15.5,29.9
3.1,11.7326219649835,23.7970989878482,4.61110588942347,-0.00413713971534158,1,15.5,29.9
3.13333333333333,11.7309871785538,23.9507248882927,4.60697027306639,-0.00413561635707715,1,15.5,29.9
3.16666666666667,11.7293332985813,24.1042127478763,4.60283617933684,-0.00413409372955797,1,15.5,29.9
3.2,11.727660374257,24.257562615122,4.59870360754863,-0.00413257178820192,1,15.5,29.9
3.23333333333333,11.7259684520313,24.4107745385122,4.59457255700563,-0.00413105054300811,1,15.5,29.9
3.26666666666667,11.724257577024,24.563848566502,4.59044302696023,-0.0041295300453994,1,15.5,29.9
3.3,11.722527794811,24.7167847475365,4.58631501659441,-0.00412801036581456,1,15.5,29.9
3.33333333333333,11.7207791530332,24.8695831300672,4.58218852502476,-0.00412649156964928,1,15.5,29.9
3.36666666666667,11.7190117023932,25.0222437625627,4.57806355132636,-0.00412497369840015,1,15.5,29.9
3.4,11.7172254968291,25.1747666935117,4.57394009456625,-0.00412345676011583,1,15.5,29.9
3.43333333333333,11.7154205928948,25.3271519714174,4.56981815383597,-0.00412194073027194,1,15.5,29.9
3.46666666666667,11.7135970485796,25.4793996447864,4.56569772827465,-0.00412042556132519,1,15.5,29.9
3.5,11.711754921916,25.6315097621139,4.56157881707756,-0.00411891119709384,1,15.5,29.9
3.53333333333333,11.7098942697294,25.7834823718706,4.55746141948997,-0.00411739758758412,1,15.5,29.9
3.56666666666667,11.708015146806,25.935317522493,4.55334553478961,-0.00411588470036062,1,15.5,29.9
3.6,11.7061176056161,26.0870152623795,4.54923116226357,-0.00411437252603708,1,15.5,29.9
3.63333333333333,11.7042016965751,26.2385756398925,4.54511830118622,-0.0041128610773562,1,15.5,29.9
3.66666666666667,11.7022674687027,26.3899987033651,4.54100695080322,-0.00411135038299371,1,15.5,29.9
3.7,11.7003149704636,26.5412845011099,4.53689711032479,-0.00410984047843499,1,15.5,29.9
3.73333333333333,11.6983442505676,26.6924330814282,4.53278877892825,-0.0041083313965391,1,15.5,29.9
3.76666666666667,11.6963553585495,26.8434444926165,4.52868195576805,-0.00410682316020239,1,15.5,29.9
3.8,11.6943477821464,26.9943187762562,4.52457670939618,-0.00410524637187049,1,15.5,29.9
3.83333333333333,11.6923190658989,27.1450559501892,4.52047307661642,-0.00410363277975367,1,15.5,29.9
3.86666666666667,11.6902665192531,27.2956560280527,4.51637108066514,-0.00410199595128535,1,15.5,29.9
3.9,11.6881865114974,27.4461190103739,4.51227072409197,-0.00410035657316765,1,15.5,29.9
3.93333333333333,11.6860764716244,27.5964449087852,4.50817193297172,-0.00409879112025191,1,15.5,29.9
3.96666666666667,11.6839352878565,27.7466337517367,4.50407464183707,-0.0040972911346504,1,15.5,29.9
4,11.6817630044943,27.8966855816918,4.49997879887887,-0.00409584295819343,1,15.5,29.9
4.03333333333333,11.6795604897483,28.0466004517817,4.49588436972752,-0.00409442915135028,1,15.5,29.9
4.06666666666667,11.6773291260352,28.1963784224905,4.49179133793932,-0.00409303178820597,1,15.5,29.9
4.1,11.6750705506117,28.3460195586992,4.48769970237919,-0.00409163556012526,1,15.5,29.9
4.13333333333333,11.6727864549546,28.4955239272173,4.4836094728788,-0.00409022950039706,1,15.5,29.9
4.16666666666667,11.6704784386112,28.6448915948011,4.47952066568761,-0.00408880719118887,1,15.5,29.9
4.2,11.6681473505378,28.794122618902,4.47543338901221,-0.00408727667539566,1,15.5,29.9
4.23333333333333,11.6657918527753,28.943217026864,4.47134770773029,-0.00408568128192233,1,15.5,29.9
4.26666666666667,11.6634105985846,29.0921748448797,4.46726357783889,-0.00408412989139606,1,15.5,29.9
4.3,11.661002821057,29.2409961063852,4.46318096197389,-0.00408261586500291,1,15.5,29.9
4.33333333333333,11.658568221533,29.3896808509336,4.45909983238727,-0.00408112958662432,1,15.5,29.9
4.36666666666667,11.6561068313749,29.538229122605,4.45502017181125,-0.00407966057601161,1,15.5,29.9
4.4,11.6536188847041,29.6866409684647,4.4509419722723,-0.00407819953895761,1,15.5,29.9
4.43333333333333,11.6511047236148,29.8349164373834,4.44686523250449,-0.0040767397678021,1,15.5,29.9
4.46666666666667,11.648564741197,29.9830555793156,4.44278995493553,-0.00407527756896453,1,15.5,29.9
4.5,11.6459993553206,30.1310584449607,4.43871614313812,-0.00407381179740529,1,15.5,29.9
4.53333333333333,11.6434089996348,30.2789250856305,4.4346438002731,-0.00407234286502778,1,15.5,29.9
4.56666666666667,11.6407941177708,30.4266555531306,4.43057292860679,-0.0040708716663076,1,15.5,29.9
4.6,11.638155702198,30.5742499083104,4.42650343514605,-0.0040694934607437,1,15.5,29.9
4.63333333333333,11.6354966291414,30.7217082430175,4.42243527548727,-0.00406815965877438,1,15.5,29.9
4.66666666666667,11.632819436495,30.869030645451,4.41836852209855,-0.00406675338871754,1,15.5,29.9
4.7,11.6301256937804,31.0162171893996,4.41430323610979,-0.00406528598876665,1,15.5,29.9
4.73333333333333,11.6274160971203,31.1632679349344,4.41023946203974,-0.0040637740700511,1,15.5,29.9
4.76666666666667,11.6246906300932,31.3101829303634,4.40617722744283,-0.00406223459690391,1,15.5,29.9
4.8,11.6219487539332,31.4569622148959,4.4021165453857,-0.00406068205712895,1,15.5,29.9
4.83333333333333,11.6191895987106,31.60360582154,4.39805741795765,-0.00405912742805192,1,15.5,29.9
4.86666666666667,11.6164121361885,31.7501137798791,4.39399983968136,-0.00405757827629483,1,15.5,29.9
4.9,11.6136153232791,31.8964861184989,4.38994380032231,-0.00405603935904608,1,15.5,29.9
4.93333333333333,11.6107982114617,32.0427228669405,4.38588928701782,-0.00405451330449047,1,15.5,29.9
4.96666666666667,11.6079600219177,32.1888240571378,4.3818362858464,-0.00405300117141838,1,15.5,29.9
5,11.6051001887615,32.3347897243431,4.37778478300232,-0.00405150284408329,1,15.5,29.9
5.03333333333333,11.6022183741389,32.4806199075771,4.3737347657044,-0.00405001729792165,1,15.5,29.9
5.06666666666667,11.5993144596785,32.6263146496535,4.36968622290777,-0.00404854279662548,1,15.5,29.9
5.1,11.5963885192488,32.7718739968469,4.36563914583263,-0.00404707707513641,1,15.5,29.9
5.13333333333333,11.5934407783707,32.9172979982817,4.36159352828938,-0.00404561754325172,1,15.5,29.9
5.16666666666667,11.5904715659472,33.0625867051354,4.35754936676981,-0.00404416151957232,1,15.5,29.9
5.2,11.5874812640525,33.2077401697602,4.35350666028816,-0.00404270648164751,1,15.5,29.9
5.23333333333333,11.5844702611815,33.3527584448226,4.3494654099871,-0.00404125030105895,1,15.5,29.9
5.26666666666667,11.5814389135014,33.4976415825567,4.34542561856085,-0.00403979142625488,1,15.5,29.9
5.3,11.5783875172813,33.642389634201,4.34138728957817,-0.00403832898268064,1,15.5,29.9
5.33333333333333,11.5753162939622,33.7870026496594,4.33735042680215,-0.00403686277601878,1,15.5,29.9
5.36666666666667,11.5722253875335,33.9314806773943,4.33331503359773,-0.00403539320441837,1,15.5,29.9
5.4,11.5691148722847,34.075823764523,4.32928111249515,-0.00403392110257972,1,15.5,29.9
5.43333333333333,11.5659847678657,34.2200319570697,4.32524866494478,-0.00403244755037147,1,15.5,29.9
5.46666666666667,11.562835058068,34.3641053003038,4.32121769126473,-0.00403097368005234,1,15.5,29.9
5.5,11.5596657098583,34.508043839101,4.31718819075369,-0.00402950051104245,1,15.5,29.9
5.53333333333333,11.5564766898546,34.6518476182667,4.31316016192156,-0.00402802883212505,1,15.5,29.9
5.56666666666667,11.5532679764398,34.7955166827855,4.30913360278096,-0.00402655914059746,1,15.5,29.9
5.6,11.5500395668224,34.939051077975,4.3051085111432,-0.00402509163776354,1,15.5,29.9
5.63333333333333,11.5467914793513,35.0824508495482,4.30108488487186,-0.00402362627134334,1,15.5,29.9
5.66666666666667,11.5435237521106,35.2257160435996,4.29706272206281,-0.0040221628090471,1,15.5,29.9
5.7,11.5402364391787,35.3688467065411,4.29304202113834,-0.00402070092447282,1,15.5,29.9
5.73333333333333,11.5369296059406,35.5118428850156,4.28902278086109,-0.00401924027724476,1,15.5,29.9
5.76666666666667,11.5336033245762,35.654704625809,4.28500500028733,-0.0040177805737569,1,15.5,29.9
5.8,11.5302576704326,35.7974319757787,4.28098867868592,-0.00401632160141752,1,15.5,29.9
5.83333333333333,11.5268927195435,35.9400249818023,4.27697381544951,-0.00401486323640565,1,15.5,29.9
5.86666666666667,11.5235085472058,36.082483690747,4.27296041001877,-0.00401340543074458,1,15.5,29.9
5.9,11.5201052273044,36.2248081494539,4.26894846183114,-0.00401194818762196,1,15.5,29.9
5.93333333333333,11.5166828320162,36.366998404729,4.26493797029667,-0.00401049153447808,1,15.5,29.9
5.96666666666667,11.5132414315954,36.5090545033364,4.26092893479543,-0.00400903550123832,1,15.5,29.9
6,11.5097810940788,36.6509764919885,4.25692135468748,-0.00400758010794799,1,15.5,29.9
6.03333333333333,11.5063018849078,36.7927644173352,4.25291522932517,-0.00400612536230938,1,15.5,29.9
6.06666666666667,11.5028038665744,36.9344183259536,4.24891055806036,-0.00400467126480919,1,15.5,29.9
6.1,11.4992870984505,37.0759382643414,4.24490734024294,-0.00400321781741919,1,15.5,29.9
6.13333333333333,11.4957516369322,37.2173242789188,4.24090557521126,-0.00400176503168481,1,15.5,29.9
6.16666666666667,11.4921975359562,37.3585764160387,4.23690526227818,-0.0040003129330799,1,15.5,29.9
6.2,11.4886248478449,37.4996947220057,4.23290640071804,-0.00399886156013984,1,15.5,29.9
6.23333333333333,11.4850336243464,37.6406792431002,4.2289089897592,-0.00399741095883677,1,15.5,29.9
6.26666666666667,11.4814239176851,37.7815300256033,4.22491302858512,-0.00399596117407697,1,15.5,29.9
6.3,11.4777957814318,37.9222471158181,4.22091851634428,-0.00399451224084313,1,15.5,29.9
6.33333333333333,11.474149271049,38.062830560084,4.2169254521668,-0.00399306417748324,1,15.5,29.9
6.36666666666667,11.4704844440408,38.2032804047814,4.21293383518397,-0.00399161698282846,1,15.5,29.9
6.4,11.466801359724,38.3435966963272,4.2089436645463,-0.00399017063767193,1,15.5,29.9
6.43333333333333,11.4631005775387,38.4837794934575,4.20495486134971,-0.00398880319659156,1,15.5,29.9
6.46666666666667,11.4593843938717,38.623828898275,4.20096738498314,-0.00398747636656349,1,15.5,29.9
6.5,11.4556548659663,38.7637450082407,4.1969812908236,-0.0039860941595391,1,15.5,29.9
6.53333333333333,11.4519132545336,38.9035279019598,4.19299662556121,-0.00398466526239005,1,15.5,29.9
6.56666666666667,11.4481601152079,39.0431776408553,4.18901342279809,-0.00398320276312703,1,15.5,29.9
6.6,11.444395964424,39.1826942855253,4.18503162865188,-0.00398179414620348,1,15.5,29.9
6.63333333333333,11.4406227366554,39.3220779328634,4.18105121828179,-0.00398041037009289,1,15.5,29.9
6.66666666666667,11.4368418662001,39.4613286677768,4.1770722473814,-0.00397897090039123,1,15.5,29.9
6.7,11.4330538307485,39.6004465510446,4.17309475407692,-0.00397749330448338,1,15.5,29.9
