Time,x_ego,y_ego,velocity,acceleration,action,x_ped,y_ped
0,11.8,15.9,7,0,1,15.5,29.9
0.0333333333333333,11.7999983534839,16.1332703793933,6.99615578086957,-0.00384421913043465,1,15.5,29.9
0.0666666666666667,11.7999880512244,16.366406598772,6.99196948588594,-0.00418629498362311,1,15.5,29.9
0.1,11.7999635172824,16.5994007549254,6.98769503770773,-0.00427444817820799,1,15.5,29.9
0.133333333333333,11.7999210172268,16.832253783676,6.98349777296484,-0.00419726474289828,1,15.5,29.9
0.166666666666667,11.7998559533148,17.0649678750496,6.97935607933961,-0.00414169362522721,1,15.5,29.9
0.2,11.7997656252771,17.2975446054256,6.97525444830178,-0.00410163103783034,1,15.5,29.9
0.233333333333333,11.7996493220647,17.52998511145,6.97118175588412,-0.00407269241766262,1,15.5,29.9
0.266666666666667,11.7995075485784,17.7622902148688,6.96713002844259,-0.00405172744152082,1,15.5,29.9
0.3,11.7993414542811,17.9944605120687,6.96309355521061,-0.00403647323198086,1,15.5,29.9
0.333333333333333,11.7991524594499,18.226496438222,6.95906824859303,-0.00402530661758238,1,15.5,29.9
0.366666666666667,11.7989420386164,18.4583979498583,6.95502938468232,-0.0040388639107114,1,15.5,29.9
0.4,11.7987116370179,18.6901071532018,6.94753067024949,-0.00749871443282757,1,15.5,29.9
0.433333333333333,11.798462693803,18.9213935283088,6.92966086635759,-0.0178698038919043,1,15.5,29.9
0.466666666666667,11.7981966919719,19.1517962044217,6.89451015839903,-0.0351507079585547,3,15.5,29.9
0.5,11.7979150089069,19.3808830544542,6.85071267745592,-0.0437974809431125,3,15.5,29.9
0.533333333333333,11.7976188173487,19.6083658713841,6.79826961869875,-0.0524430587571665,3,15.5,29.9
0.566666666666667,11.7973091851244,19.8339277881589,6.73546024907754,-0.0628093696212151,3,15.5,29.9
0.6,11.7969871890992,20.0571077510621,6.65535427007387,-0.0801059790036742,3,15.5,29.9
0.633333333333333,11.7966539046293,20.2773583125962,6.55969831060858,-0.095655959465283,3,15.5,29.9
0.666666666666667,11.7963103156739,20.4941898806957,6.4502171809208,-0.109481129687786,3,15.5,29.9
0.7,11.7959573889734,20.7071416501802,6.32691343879197,-0.12330374212883,3,15.5,29.9
0.733333333333333,11.7955960878213,20.9158106668992,6.19325562508983,-0.133657813702139,3,15.5,29.9
0.766666666666667,11.7952273770121,21.1198805206207,6.05096786668479,-0.142287758405035,3,15.5,29.9
0.8,11.7948523196364,21.3190639285608,5.90007359328466,-0.150894273400133,3,15.5,29.9
0.833333333333333,11.794472009617,21.5131601337018,5.7457405629829,-0.154333030301758,3,15.5,29.9
0.866666666666667,11.7940876892563,21.7019680545194,5.58278129611827,-0.162959266864627,3,15.5,29.9
0.9,11.7937006827731,21.8853157142264,5.41812890069962,-0.164652395418653,3,15.5,29.9
0.933333333333333,11.7933121874342,22.0631754011113,5.2535057326751,-0.164623168024526,3,15.5,29.9
0.966666666666667,11.7929233989359,22.2355481152827,5.08891175436789,-0.164593978307208,3,15.5,29.9
1,11.7925355161496,22.4024348586217,4.92434690869352,-0.16456484567437,3,15.5,29.9
1.03333333333333,11.7921497082197,22.5638366304366,4.75981118682632,-0.164535721867202,3,15.5,29.9
1.06666666666667,11.7917670910086,22.7197544243416,4.59530464703234,-0.164506539793973,3,15.5,29.9
1.1,11.7913887143731,22.8701892260229,4.43082738913022,-0.164477257902121,3,15.5,29.9
1.13333333333333,11.7910155616024,23.0151410570822,4.26629625567359,-0.164531133456627,3,15.5,29.9
1.16666666666667,11.7906485596318,23.1546067800618,4.10166634004537,-0.164629915628224,3,15.5,29.9
1.2,11.790288642611,23.2885548043807,3.93523864799767,-0.166427692047695,3,15.5,29.9
1.23333333333333,11.7899367064036,23.4169548098483,3.76878931303622,-0.166449334961451,3,15.5,29.9
1.26666666666667,11.7895935604776,23.5398064503757,3.60234106800607,-0.166448245030158,3,15.5,29.9
1.3,11.7892599300496,23.6571390918867,3.43765384283217,-0.164687225173898,3,15.5,29.9
1.33333333333333,11.7889365191536,23.7689825549477,3.27299468618185,-0.164659156650313,3,15.5,29.9
1.36666666666667,11.7886240066195,23.8753666168596,3.11009344539369,-0.162901240788161,3,15.5,29.9
1.4,11.7883229742577,23.9763499794475,2.94895529132697,-0.161138154066725,3,15.5,29.9
1.43333333333333,11.7880339612589,24.071991857073,2.78960549207452,-0.159349799252444,3,15.5,29.9
1.46666666666667,11.7877574576902,24.1623515619043,2.63202454500769,-0.157580947066837,3,15.5,29.9
1.5,11.7874938299044,24.2475171698802,2.47795788057722,-0.15406666443047,3,15.5,29.9
1.53333333333333,11.7872434547343,24.3275480853221,2.32394013213433,-0.15401774844289,3,15.5,29.9
1.56666666666667,11.7870066382189,24.4025039105842,2.17347972876157,-0.150460403372754,3,15.5,29.9
1.6,11.7867834421232,24.4725141185476,2.02747060168815,-0.146009127073419,3,15.5,29.9
1.63333333333333,11.7865736804318,24.5377800898445,1.88894335074889,-0.138527250939261,3,15.5,29.9
1.66666666666667,11.7863771842821,24.598472576631,1.75307844955244,-0.135864901196455,3,15.5,29.9
1.7,11.786193791274,24.6547390346265,1.62337185255156,-0.129706597000876,3,15.5,29.9
1.73333333333333,11.7860232235702,24.7067549689376,1.49804059443157,-0.125331258119989,3,15.5,29.9
1.76666666666667,11.7858652439328,24.7546657092771,1.37704536068264,-0.120995233748931,3,15.5,29.9
1.8,11.7857195130212,24.7986433731107,1.26204342495765,-0.115001935724989,3,15.5,29.9
1.83333333333333,11.7855856712694,24.8388571734304,1.15119484795185,-0.110848577005808,3,15.5,29.9
1.86666666666667,11.7854634201118,24.8754441212608,1.04442768336017,-0.106767164591676,3,15.5,29.9
1.9,11.7853524413877,24.9085410378308,0.941804837590036,-0.102622845770133,3,15.5,29.9
1.93333333333333,11.7852523171911,24.9383154424962,0.845076626065965,-0.0967282115240715,3,15.5,29.9
1.96666666666667,11.7851623039679,24.9650493669387,0.759343001869401,-0.0857336241965635,3,15.5,29.9
2,11.7850816551055,24.9890194024556,0.679213253316699,-0.0801297485527026,3,15.5,29.9
2.03333333333333,11.7850097800185,25.0104381432711,0.606250619002037,-0.0729626343146615,3,15.5,29.9
2.06666666666667,11.7849460838864,25.0295143661679,0.538657909377777,-0.0675927096242599,3,15.5,29.9
2.1,11.7848900449587,25.0464255049428,0.476340830547167,-0.0623170788306107,3,15.5,29.9
2.13333333333333,11.7848409019992,25.0614327024508,0.424412836944279,-0.0519279936028879,3,15.5,29.9
2.16666666666667,11.7847974196747,25.0749661997733,0.387897712075107,-0.036515124869172,3,15.5,29.9
2.2,11.7847581306523,25.0875360392401,0.366566650992139,-0.0213310610829681,3,15.5,29.9
2.23333333333333,11.7847216538679,25.0996150982124,0.358421416244619,-0.00814523474752005,5,15.5,29.9
2.26666666666667,11.7846868511754,25.1115811857647,0.359759262180611,0.00133784593599195,5,15.5,29.9
2.3,11.7846527442595,25.1237463030534,0.370335306564013,0.0105760443834029,5,15.5,29.9
2.33333333333333,11.78461827307,25.1364432440653,0.391639300946917,0.0213039943829038,4,15.5,29.9
2.36666666666667,11.7845824494671,25.1499681145323,0.419980517364561,0.0283412164176434,4,15.5,29.9
2.4,11.7845443501517,25.1645810920494,0.456893936143767,0.0369134187792066,4,15.5,29.9
2.43333333333333,11.784503188867,25.1804784816912,0.49700956621781,0.040115630074043,4,15.5,29.9
2.46666666666667,11.7844585533831,25.1977056694033,0.536649500879276,0.0396399346614657,4,15.5,29.9
2.5,11.7844101844351,25.2162443798013,0.575673647628349,0.0390241467490735,4,15.5,29.9
2.53333333333333,11.784357870662,25.2360724488735,0.613986132384791,0.038312484756442,4,15.5,29.9
2.56666666666667,11.7843014309061,25.2571650793655,0.651523580666541,0.0375374482817501,4,15.5,29.9
2.6,11.7842407681336,25.2794957608748,0.68824677024457,0.0367231895780289,4,15.5,29.9
2.63333333333333,11.7841758202476,25.3030371649832,0.724153531779833,0.0359067615352622,4,15.5,29.9
2.66666666666667,11.7841065430659,25.3277626390759,0.759280588270697,0.0351270564908648,4,15.5,29.9
2.7,11.7840329144529,25.353646722255,0.793662186837806,0.0343815985671087,4,15.5,29.9
2.73333333333333,11.7839549393282,25.380664989,0.827327653744887,0.0336654669070811,4,15.5,29.9
2.76666666666667,11.7838726533268,25.4087939160568,0.860302393341403,0.0329747395965155,4,15.5,29.9
2.8,11.7837861248417,25.43801078022,0.892608705315996,0.0323063119745938,4,15.5,29.9
2.83333333333333,11.7836954553444,25.468293565806,0.924263298267165,0.0316545929511686,4,15.5,29.9
2.86666666666667,11.7836007797188,25.4996202306579,0.95524084850504,0.0309775502378749,4,15.5,29.9
2.9,11.7835022660098,25.5319675686978,0.985506518917146,0.0302656704121066,4,15.5,29.9
2.93333333333333,11.7834001095695,25.5653115391352,1.01504268688687,0.0295361679697246,4,15.5,29.9
2.96666666666667,11.7832945255391,25.5996277180465,1.04384204977399,0.0287993628871197,4,15.5,29.9
3,11.7831857407638,25.6348915919135,1.07190620035615,0.0280641505821619,4,15.5,29.9
3.03333333333333,11.7830739851497,25.6710788291035,1.0992441465447,0.0273379461885486,4,15.5,29.9
3.06666666666667,11.7829594830294,25.7081654780467,1.12586992566369,0.0266257791189841,4,15.5,29.9
3.1,11.7828424448631,25.7461281308033,1.15180486417221,0.0259349385085228,4,15.5,29.9
3.13333333333333,11.7827230586456,25.7849444271397,1.17709141057671,0.0252865464045016,4,15.5,29.9
3.16666666666667,11.7826014825543,25.8245934855454,1.20177266108984,0.0246812505131309,4,15.5,29.9
3.2,11.7824778406677,25.8650557292915,1.22588461104541,0.0241119499555715,4,15.5,29.9
3.23333333333333,11.7823522204092,25.9063126824369,1.24945777613264,0.0235731650872235,4,15.5,29.9
3.26666666666667,11.7822246716762,25.9483468130889,1.27251842396685,0.0230606478342166,4,15.5,29.9
3.3,11.7820952077782,25.9911414115809,1.29508951750456,0.022571093537709,4,15.5,29.9
3.33333333333333,11.7819638081962,26.0346804947513,1.31719143807671,0.0221019205721489,4,15.5,29.9
3.36666666666667,11.781830423065,26.0789487298039,1.33884253620312,0.0216510981264122,4,15.5,29.9
3.4,11.781694979171,26.1239313725499,1.36005952149494,0.0212169852918216,4,15.5,29.9
3.43333333333333,11.7815573870338,26.1696142579111,1.38086631375361,0.0208067922586681,4,15.5,29.9
3.46666666666667,11.7814175415204,26.2159863379324,1.40148060476288,0.0206142910092715,4,15.5,29.9
3.5,11.7812752029401,26.2630497605771,1.42246043504154,0.0209798302786535,4,15.5,29.9
3.53333333333333,11.7811296992498,26.3108290243811,1.44457088734227,0.0221104523007327,4,15.5,29.9
3.56666666666667,11.7809801426828,26.3593762987472,1.46869425329165,0.0241233659493763,4,15.5,29.9
3.6,11.7808252405253,26.4087745294973,1.49579839401852,0.0271041407268751,4,15.5,29.9
3.63333333333333,11.7806636819751,26.4591405929006,1.52694914602065,0.0311507520021252,4,15.5,29.9
3.66666666666667,11.780494282797,26.5106279446595,1.56325512860607,0.0363059825854257,4,15.5,29.9
3.7,11.7803160112084,26.5634246979013,1.60563881274788,0.0423836841418095,4,15.5,29.9
3.73333333333333,11.7801280167669,26.6177439322273,1.65467619573166,0.049037382983782,4,15.5,29.9
3.76666666666667,11.7799296440827,26.6738130871923,1.7106647071743,0.0559885114426359,4,15.5,29.9
3.8,11.779720424344,26.7318655589217,1.77367091419407,0.0630062070197683,4,15.5,29.9
3.83333333333333,11.7795000501106,26.7921334425828,1.84354436034612,0.0698734461520483,4,15.5,29.9
3.86666666666667,11.7792683418991,26.8548395553376,1.9198832448196,0.0763388844734842,4,15.5,29.9
3.9,11.7790252055343,26.9201903516454,2.00212495107706,0.0822417062574616,4,15.5,29.9
3.93333333333333,11.7787705780681,26.9883719057017,2.0896178196108,0.0874928685337406,4,15.5,29.9
3.96666666666667,11.7785043708812,27.0595476896231,2.18166295917395,0.0920451395631514,4,15.5,29.9
4,11.7782264170994,27.1338575171466,2.27754394853582,0.0958809893618686,4,15.5,29.9
4.03333333333333,11.7779364294665,27.2114173475043,2.3765521504135,0.0990082018776741,4,15.5,29.9
4.06666666666667,11.777633970391,27.2923208517646,2.4780767993903,0.101524648976807,4,15.5,29.9
4.1,11.777318436542,27.3766431373283,2.58159807156524,0.103521272174939,4,15.5,29.9
4.13333333333333,11.7769890828364,27.4644426258295,2.68663366079328,0.105035589228037,4,15.5,29.9
4.16666666666667,11.7766450804911,27.5557623002048,2.79274003810498,0.106106377311697,4,15.5,29.9
4.2,11.7762855739711,27.6506310467836,2.89951571621146,0.106775678106479,4,15.5,29.9
4.23333333333333,11.7759097350808,27.7490651518808,3.00660739864843,0.107091682436979,4,15.5,29.9
4.26666666666667,11.7755168102878,27.8510698410363,3.11369581744449,0.10708841879606,4,15.5,29.9
4.3,11.7751061617928,27.9566391808823,3.22043025367479,0.106734436230295,4,15.5,29.9
4.33333333333333,11.774677702991,28.0657562411252,3.32651872448683,0.106088470812042,4,15.5,29.9
4.36666666666667,11.7742329747325,28.1783957485955,3.4317474292695,0.105228704782667,4,15.5,29.9
4.4,11.773773568242,28.2945262686218,3.53595820401776,0.10421077474826,4,15.5,29.9
4.43333333333333,11.7733005779758,28.4141118619169,3.63903771984703,0.103079515829273,4,15.5,29.9
4.46666666666667,11.7728145818159,28.5371134843966,3.74091217853886,0.101874458691826,4,15.5,29.9
4.5,11.7723156899461,28.6634898223468,3.84150161779061,0.100589439251752,4,15.5,29.9
4.53333333333333,11.7718036432392,28.7931957582757,3.94067234174266,0.0991707239520534,4,15.5,29.9
4.56666666666667,11.7712779224048,28.9261827113187,4.0383607496091,0.0976884078664386,4,15.5,29.9
4.6,11.7707378483139,29.062401141135,4.13456702954581,0.0962062799367098,4,15.5,29.9
4.63333333333333,11.7701826726716,29.201802171201,4.2293270460447,0.0947600164988867,4,15.5,29.9
4.66666666666667,11.7696116530734,29.3443384591992,4.32269495145111,0.09336790540641,4,15.5,29.9
4.7,11.7690241099,29.4899646717856,4.41473657773926,0.0920416262881565,4,15.5,29.9
4.73333333333333,11.7684199899915,29.6386377778684,4.50552222586778,0.0907856481285148,4,15.5,29.9
4.76666666666667,11.7678012011282,29.7903168312759,4.5950975790083,0.0895753531405168,4,15.5,29.9
4.8,11.7671695592964,29.9449613365847,4.68343860409644,0.0883410250881473,4,15.5,29.9
4.83333333333333,11.7665262129292,30.1025275231527,4.77034732166557,0.0869087175691243,4,15.5,29.9
4.86666666666667,11.7658717491742,30.2629639338157,4.85565612122765,0.0853087995620845,4,15.5,29.9
4.9,11.7652063095172,30.4262174219179,4.93935863100751,0.0837025097798598,4,15.5,29.9
4.93333333333333,11.764529737007,30.5922329912513,5.02137423930618,0.0820156082986658,4,15.5,29.9
4.96666666666667,11.7638417035405,30.7609538703215,5.10167353699023,0.0802992976840518,4,15.5,29.9
5,11.7631418024092,30.9323224817119,5.18024853837166,0.0785750013814264,4,15.5,29.9
5.03333333333333,11.7624296013816,31.1062834340708,5.25725358112407,0.0770050427524138,4,15.5,29.9
5.06666666666667,11.7617046664102,31.2827877319349,5.3328695763081,0.0756159951840285,4,15.5,29.9
5.1,11.7609665953075,31.4617905715797,5.40718191074784,0.0743123344397425,4,15.5,29.9
5.13333333333333,11.760215042315,31.6432495474439,5.48024277617252,0.0730608654246776,4,15.5,29.9
5.16666666666667,11.7594497370035,31.8271234171296,5.55208763512098,0.0718448589484604,4,15.5,29.9
5.2,11.7586704942591,32.0133723151706,5.62274539213111,0.0706577570101308,4,15.5,29.9
5.23333333333333,11.7578772237378,32.2019568153401,5.69223603732449,0.069490645193385,4,15.5,29.9
5.26666666666667,11.7570699224427,32.3928392777065,5.76064041740844,0.0684043800839476,4,15.5,29.9
5.3,11.7562486594273,32.5859848751128,5.82803909156521,0.067398674156764,4,15.5,29.9
5.33333333333333,11.7554135569525,32.7813613933768,5.89451134485452,0.0664722532893096,4,15.5,29.9
5.36666666666667,11.7545647650042,32.9789392456052,5.96013334299211,0.0656219981375905,4,15.5,29.9
5.4,11.7537024352765,33.1786912110038,6.02497027348227,0.0648369304901637,4,15.5,29.9
5.43333333333333,11.7528266984283,33.3805920493592,6.0890772238706,0.064106950388334,4,15.5,29.9
5.46666666666667,11.7519376463198,33.5846184527762,6.15251956789789,0.063442344027286,4,15.5,29.9
5.5,11.7510353208578,33.7907494272461,6.21535459689789,0.0628350289999995,4,15.5,29.9
5.53333333333333,11.7501197209606,33.9989644112872,6.27756183446987,0.0622072375719753,4,15.5,29.9
5.56666666666667,11.7491908101111,34.2092429616839,6.33918659822896,0.0616247637590943,4,15.5,29.9
5.6,11.7482485146446,34.4215676737459,6.40035952124329,0.061172923014329,4,15.5,29.9
5.63333333333333,11.7472927277835,34.6359260516423,6.46123295588964,0.0608734346463553,4,15.5,29.9
5.66666666666667,11.7463233210846,34.8523103440885,6.52193529506452,0.0607023391748758,4,15.5,29.9
5.7,11.7453401566983,35.070716499296,6.58255985635228,0.0606245612877627,4,15.5,29.9
5.73333333333333,11.7443430963379,35.291143024415,6.64316790389817,0.0606080475458892,4,15.5,29.9
5.76666666666667,11.7433320059178,35.513590035064,6.70379598551391,0.0606280816157421,4,15.5,29.9
5.8,11.7423067564518,35.7380585585563,6.76446340526911,0.0606674197551973,4,15.5,29.9
5.83333333333333,11.7412672225311,35.964550065571,6.8251783403724,0.0607149351032872,4,15.5,29.9
5.86666666666667,11.7402132798029,36.1930661783183,6.88594232178423,0.0607639814118315,4,15.5,29.9
5.9,11.7391448025965,36.4236085032507,6.94675327716246,0.0608109553782299,4,15.5,29.9
5.93333333333333,11.7380616623912,36.6561785458558,7.00760746986025,0.0608541926977919,4,15.5,29.9
5.96666666666667,11.7369632416822,36.8908848453596,7.07767290343017,0.0700654335699227,4,15.5,29.9
6,11.7358475021593,37.1281465262022,7.1594183177858,0.0817454143556224,4,15.5,29.9
6.03333333333333,11.7347131140986,37.3682214005056,7.24552379615954,0.0861054783737476,4,15.5,29.9
6.06666666666667,11.7335596042778,37.611175572445,7.3316504944611,0.0861266983015589,4,15.5,29.9
6.1,11.7323869950115,37.8569650451606,7.4153493270161,0.0836988325550019,4,15.5,29.9
6.13333333333333,11.7311955812859,38.1054861939277,7.4954452796538,0.0800959526376941,4,15.5,29.9
6.16666666666667,11.729985772142,38.3566114979347,7.57158551731218,0.076140237658386,4,15.5,29.9
6.2,11.7287580021408,38.6102095088459,7.64385030149599,0.0722647841838064,4,15.5,29.9
6.23333333333333,11.727512681833,38.866155974229,7.71256109330751,0.068710791811518,4,15.5,29.9
6.26666666666667,11.7262501733341,39.1243392534705,7.77813499359391,0.0655739002864015,4,15.5,29.9
6.3,11.7249707823273,39.3846619959711,7.84100164336664,0.0628666497727295,4,15.5,29.9
