Time,x_ego,y_ego,velocity,acceleration,action,x_ped,y_ped
0,11.8,8.9,7,0,1,15.5,29.9
0.0333333333333333,11.8000041796125,9.13327037938785,6.99615578816176,-0.00384421183823669,1,15.4502170138889,29.9
0.0666666666666667,11.8000303314699,9.36640659855808,6.99196956641274,-0.00418622174902605,1,15.4008680555556,29.9
0.1,11.8000926098639,9.59940075300012,6.98769531271503,-0.00427425369770873,1,15.351953125,29.9
0.133333333333333,11.8001983545981,9.83225377515495,6.98349833673929,-0.00419697597573787,1,15.3034722222222,29.9
0.166666666666667,11.8003501253732,10.0649678497707,6.97935694703285,-0.00414138970643929,1,15.2554253472222,29.9
0.2,11.8005475247231,10.2975445470903,6.97525557468853,-0.00410137234432195,1,15.2078125,29.9
0.233333333333333,11.8007885944745,10.5299849978611,6.97118306873924,-0.00407250594928765,1,15.1606336805556,29.9
0.266666666666667,11.801070739625,10.7622900188979,6.96713145698599,-0.00405161175325475,1,15.1138888888889,29.9
0.3,11.8013912463857,10.9944602028902,6.96309504433922,-0.00403641264676224,1,15.067578125,29.9
0.333333333333333,11.8017475156913,11.2264959824836,6.95906976104049,-0.00402528329873153,1,15.0217013888889,29.9
0.366666666666667,11.8021371394093,11.4583976759489,6.9550526957372,-0.00401706530329626,1,14.9762586805556,29.9
0.4,11.8025579201775,11.6901655197135,6.95104176336867,-0.00401093236852201,1,14.93125,29.9
0.433333333333333,11.8030078951068,11.921799691522,6.94703546967681,-0.00400629369186767,1,14.8866753472222,29.9
0.466666666666667,11.8034853836359,12.1533003269063,6.94303274401881,-0.00400272565800019,1,14.8425347222222,29.9
0.5,11.8039890506013,12.3846675308923,6.93903282009106,-0.0039999239277444,1,14.798828125,29.9
0.533333333333333,11.8045179612248,12.6159013863282,6.93503515024424,-0.00399766984681804,1,14.7555555555556,29.9
0.566666666666667,11.8050716043341,12.8470019598425,6.93103934353105,-0.00399580671319111,1,14.7127170138889,29.9
0.6,11.8056498695,13.0779693061539,6.92704512077658,-0.00399422275447581,1,14.6703125,29.9
0.633333333333333,11.8062529773089,13.308803471241,6.92305228207517,-0.0039928387014081,1,14.6283420138889,29.9
0.666666666666667,11.8068813745532,13.5395044947211,6.91906068346958,-0.00399159860558829,1,14.5868055555556,29.9
0.7,11.8075356141409,13.7700724116654,6.91507022042285,-0.00399046304672712,1,14.545703125,29.9
0.733333333333333,11.8082162415235,14.000507253993,6.91108081626878,-0.00398940415407001,1,14.5050347222222,29.9
0.766666666666667,11.8089237058809,14.2308090515282,6.9070924142552,-0.00398840201358386,1,14.4648003472222,29.9
0.8,11.8096583069933,14.4609778327761,6.90310497212931,-0.00398744212589452,1,14.425,29.9
0.833333333333333,11.8104201800806,14.6910136254557,6.89911845847121,-0.00398651365809588,1,14.3856336805556,29.9
0.866666666666667,11.8112093131625,14.9209164568305,6.89513285017505,-0.00398560829616379,1,14.3467013888889,29.9
0.9,11.8120255862864,15.1506863538828,6.8911481306315,-0.00398471954354207,1,14.308203125,29.9
0.933333333333333,11.8128672359915,15.380063573164,6.87157812224212,-0.0195700083893868,3,14.2701388888889,29.9
0.966666666666667,11.8137284898995,15.6086441885,6.84335682619958,-0.028221296042533,3,14.2325086805556,29.9
1,11.8146020340769,15.8364283498566,6.82379395222837,-0.0195628739712177,3,14.1953125,29.9
1.03333333333333,11.8154793723231,16.0635026877617,6.80076873161149,-0.0230252206168764,3,14.1585503472222,29.9
1.06666666666667,11.816350590696,16.2896366646915,6.76737159426947,-0.033397137342023,3,14.1222222222222,29.9
1.1,11.8172064244448,16.5145420133871,6.72704836242041,-0.0403232318490527,3,14.086328125,29.9
1.13333333333333,11.8180418262661,16.7380460332026,6.68328814752838,-0.0437602148920355,3,14.0508680555556,29.9
1.16666666666667,11.8188555650591,16.9598895712475,6.62741587283037,-0.05587227469801,3,14.0158420138889,29.9
1.2,11.8196501791788,17.1795537350115,6.5525231923151,-0.0748926805152728,3,13.98125,29.9
1.23333333333333,11.8204279955375,17.3963471377479,6.45516880528735,-0.0973543870277478,3,13.9470920138889,29.9
1.26666666666667,11.8211907757941,17.6096649751757,6.34398864640717,-0.111180158880179,3,13.9133680555556,29.9
1.3,11.8219407374534,17.8192771267581,6.23282769497842,-0.111160951428745,3,13.9133680555556,29.9
1.33333333333333,11.8226802030144,18.025184234435,6.12168686386912,-0.111140831109306,3,13.9133680555556,29.9
1.36666666666667,11.8234112624821,18.2274734375379,6.01575481164847,-0.105932052220647,3,13.9133680555556,29.9
1.4,11.8241358874337,18.4263183504578,5.91503114581927,-0.100723665829197,3,13.9133680555556,29.9
1.43333333333333,11.8248557731421,18.6219212791524,5.82123729155809,-0.0937938542611843,3,13.9133680555556,29.9
1.46666666666667,11.8255730069118,18.8145135706642,5.7343940126364,-0.0868432789216937,3,13.9133680555556,29.9
1.5,11.8262913050951,19.0042691293273,5.65103418758147,-0.0833598250549263,3,13.9133680555556,29.9
1.53333333333333,11.8270129334911,19.1912172336122,5.56594720967983,-0.085086977901641,3,13.9133680555556,29.9
1.56666666666667,11.8277389151283,19.37527161667,5.47741103851474,-0.0885361711650923,3,13.9133680555556,29.9
1.6,11.8284716954832,19.5562598986896,5.38198189178319,-0.0954291467315427,3,13.9133680555556,29.9
1.63333333333333,11.8292158731555,19.7340097054118,5.28310495292832,-0.0988769388548727,3,13.9133680555556,29.9
1.66666666666667,11.8299798081453,19.9083773646948,5.17905875154912,-0.104046201379205,3,13.9133680555556,29.9
1.7,11.830774866767,20.0793634470274,5.08022039273828,-0.098838358810835,3,13.9133680555556,29.9
1.73333333333333,11.8316134230336,20.2471414545319,4.98658946010022,-0.0936309326380576,3,13.9133680555556,29.9
1.76666666666667,11.8325049594905,20.4118561730941,4.8964430817835,-0.0901463783167191,3,13.9133680555556,29.9
1.8,11.8334556498711,20.5737679137569,4.81843462588615,-0.0780084558973551,3,13.9133680555556,29.9
1.83333333333333,11.8344678922457,20.7334537815945,4.76291675874446,-0.0555178671416865,3,13.9133680555556,29.9
1.86666666666667,11.835539792704,20.8915471598806,4.72288228101498,-0.040034477729483,3,13.9133680555556,29.9
1.9,11.8366629471663,21.0483322377418,4.68445191709197,-0.0384303639230055,3,13.9133680555556,29.9
1.93333333333333,11.8378227560753,21.2035457814488,4.62861652832456,-0.0558353887674166,3,13.9133680555556,29.9
1.96666666666667,11.8390007479648,21.3566373899448,4.55715349893748,-0.0714630293870773,3,13.9133680555556,29.9
2,11.8401766397991,21.5072596787072,4.48046464358042,-0.0766888553570633,3,13.9133680555556,29.9
2.03333333333333,11.841330947067,21.6553541168737,4.40547895958653,-0.0749856839938881,3,13.9133680555556,29.9
2.06666666666667,11.8424463173738,21.8009204515992,4.32876536354101,-0.0767135960455194,3,13.9133680555556,29.9
2.1,11.8435051417873,21.9438723298674,4.24858995271144,-0.0801754108295674,3,13.9133680555556,29.9
2.13333333333333,11.8444932735795,22.0839794093417,4.15805026706465,-0.0905396856467915,3,13.9133680555556,29.9
2.16666666666667,11.8454017282573,22.220982834687,4.06234132232925,-0.0957089447353985,3,13.9133680555556,29.9
2.2,11.8462266851324,22.3546816655223,3.9597460586519,-0.102595263677352,3,13.9133680555556,29.9
2.23333333333333,11.846969242552,22.4849615469969,3.85717892169818,-0.102567136953724,3,13.9133680555556,29.9
2.26666666666667,11.8476363314085,22.6118233704621,3.75464226450046,-0.102536657197721,3,13.9133680555556,29.9
2.3,11.8482392059556,22.7352680745849,3.65213739858551,-0.102504865914943,3,13.9133680555556,29.9
2.33333333333333,11.848792482733,22.8552388627597,3.54619898219048,-0.10593841639503,3,13.9133680555556,29.9
2.36666666666667,11.8493111156785,22.9716212163647,3.43682791440648,-0.109371067784006,3,13.9133680555556,29.9
2.4,11.8498097665059,23.0842719635877,3.32230308892873,-0.114524825477748,3,13.9133680555556,29.9
2.43333333333333,11.8502995507232,23.192904122482,3.19571564530748,-0.126587443621247,3,13.9133680555556,29.9
2.46666666666667,11.8507871850845,23.2971152626429,3.0570462982487,-0.138669347058779,3,13.9133680555556,29.9
2.5,11.8512766947018,23.3966469315787,2.91495218786624,-0.142094110382459,3,13.9133680555556,29.9
2.53333333333333,11.8517710452801,23.4914718343221,2.77464533190425,-0.140306855961998,3,13.9133680555556,29.9
2.56666666666667,11.8522704407247,23.581677911403,2.63782706592488,-0.136818265979369,3,13.9133680555556,29.9
2.6,11.8527717242035,23.6673240730156,2.50105334094753,-0.13677372497735,3,13.9133680555556,29.9
2.63333333333333,11.8532693659478,23.7484696126668,2.36779039133351,-0.133262949614017,3,13.9133680555556,29.9
2.66666666666667,11.8537566675515,23.8252028931129,2.23631371973322,-0.131476671600285,3,13.9133680555556,29.9
2.7,11.8542265487746,23.8975861128503,2.10693820989144,-0.129375509841788,3,13.9133680555556,29.9
2.73333333333333,11.8546725192497,23.9656813514223,1.97923743509616,-0.127700774795281,3,13.9133680555556,29.9
2.76666666666667,11.8550892779152,24.0295593972174,1.85394948657527,-0.125287948520886,3,13.9133680555556,29.9
2.8,11.8554731904954,24.0893326541265,1.73294763329938,-0.121001853275894,3,13.9133680555556,29.9
2.83333333333333,11.8558221302519,24.1451148334167,1.61446231016283,-0.118485323136542,3,13.9133680555556,29.9
2.86666666666667,11.8561352008335,24.1969887966974,1.49844284456681,-0.116019465596022,3,13.9133680555556,29.9
2.9,11.8564128719255,24.2450648668046,1.38657051794505,-0.111872326621758,3,13.9133680555556,29.9
2.93333333333333,11.8566565556022,24.28945114777,1.27704433558144,-0.109526182363608,3,13.9133680555556,29.9
2.96666666666667,11.856868173239,24.3302246896456,1.16979024331687,-0.107254092264579,3,13.9133680555556,29.9
3,11.8570500667139,24.3674600543905,1.06475019943937,-0.105040043877497,3,13.9133680555556,29.9
3.03333333333333,11.8572047908918,24.4012315378975,0.961974590977748,-0.10277560846162,3,13.9133680555556,29.9
3.06666666666667,11.8573349530401,24.4316162433193,0.861554090560881,-0.100420500416867,3,13.9133680555556,29.9
3.1,11.8574430716972,24.4586927294737,0.763460300927584,-0.0980937896332968,3,13.9133680555556,29.9
3.13333333333333,11.8575317825723,24.4825937324926,0.67100108456769,-0.0924592163598944,3,13.9133680555556,29.9
3.16666666666667,11.8576036201912,24.5034769247472,0.582382969752042,-0.0886181148156481,3,13.9133680555556,29.9
3.2,11.8576608470228,24.521498565403,0.499303778887964,-0.0830791908640778,3,13.9133680555556,29.9
3.23333333333333,11.8577054626907,24.536814742466,0.420043995757007,-0.0792597831309573,3,13.9133680555556,29.9
3.26666666666667,11.8577388944737,24.549522705507,0.342788569943875,-0.0772554258131317,3,13.9133680555556,29.9
3.3,11.8577623295735,24.5597161687373,0.26915128374933,-0.0736372861945446,3,13.9133680555556,29.9
3.33333333333333,11.8577770628246,24.5675430262204,0.200772307693779,-0.0683789760555512,3,13.9133680555556,29.9
3.36666666666667,11.8577842175638,24.5731487299457,0.135891117908971,-0.0648811897848083,3,13.9133680555556,29.9
3.4,11.8577846439004,24.5766515045164,0.0746061591880985,-0.0612849587208724,3,13.9133680555556,29.9
3.43333333333333,11.8577789543014,24.5781427492851,0.0152274909432086,-0.0593786682448899,3,13.9133680555556,29.9
3.46666666666667,11.8577708524821,24.5782912737521,0.0164548481565529,0.00122735721334431,5,13.9133680555556,29.9
3.5,11.8577638878563,24.5777436900575,0.00104970142077842,-0.0154051467357745,5,13.9133680555556,29.9
3.53333333333333,11.8577638878563,24.5777436900575,0.0014548348398904,0.000405133419111981,5,13.9133680555556,29.9
3.56666666666667,11.8577638878563,24.5777436900575,0.00208387477886183,0.000629039938971429,5,13.9133680555556,29.9
3.6,11.8577638878563,24.5777436900575,0.00286274475890358,0.000778869980041745,5,13.9133680555556,29.9
3.63333333333333,11.8577638878563,24.5777436900575,0.00370008503613276,0.000837340277229183,5,13.9133680555556,29.9
3.66666666666667,11.8577638878563,24.5777436900575,0.00449977520434228,0.000799690168209524,5,13.9133680555556,29.9
3.7,11.8577638878563,24.5777436900575,0.00517192718947164,0.000672151985129362,5,13.9133680555556,29.9
3.73333333333333,11.8577638878563,24.5777436900575,0.00564165950934156,0.00046973231986992,5,13.9133680555556,29.9
3.76666666666667,11.8577638878563,24.5777436900575,0.0058552557907832,0.000213596281441639,5,13.9133680555556,29.9
3.8,11.8577638878563,24.5777436900575,0.00578358434959137,-7.16714411918336e-05,5,13.9133680555556,29.9
3.83333333333333,11.8577638878563,24.5777436900575,0.00542289392021489,-0.000360690429376476,5,13.9133680555556,29.9
3.86666666666667,11.8577638878563,24.5777436900575,0.00479329159585973,-0.000629602324355166,5,13.9133680555556,29.9
3.9,11.8577638878563,24.5777436900575,0.00393534630067191,-0.000857945295187818,5,13.9133680555556,29.9
3.93333333333333,11.8577638878563,24.5777436900575,0.0029053431892094,-0.00103000311146251,5,13.9133680555556,29.9
3.96666666666667,11.8577638878563,24.5777436900575,0.0017697439997645,-0.0011355991894449,5,13.9133680555556,29.9
4,11.8577638878563,24.5777436900575,0.000599391655981427,-0.00117035234378307,5,13.9133680555556,29.9
4.03333333333333,11.8577638878563,24.5777436900575,0.000536057244549535,-6.33344114318926e-05,5,13.9133680555556,29.9
4.06666666666667,11.8577638878563,24.5777436900575,0.00147448605069383,0.0009384288061443,5,13.9133680555556,29.9
4.1,11.8577655322843,24.5780451665277,0.0141537663366983,0.0126792802860045,5,13.9133680555556,29.9
4.13333333333333,11.8577697555294,24.5788194179415,0.0325251768052894,0.018371410468591,4,13.9133680555556,29.9
4.16666666666667,11.857777781795,24.5802906749978,0.0558558115993364,0.0233306347940471,4,13.9133680555556,29.9
4.2,11.8577900270523,24.582534598188,0.078810357731881,0.0229545461325446,4,13.9133680555556,29.9
4.23333333333333,11.8578061059474,24.5854791416565,0.0978460041096416,0.0190356463777606,4,13.9133680555556,29.9
4.26666666666667,11.8578256259922,24.5890500824796,0.116363380831192,0.0185173767215503,4,13.9133680555556,29.9
4.3,11.8578485075665,24.5932296567621,0.134342821164685,0.0179794403334932,5,13.9133680555556,29.9
4.33333333333333,11.8578746738093,24.5979996221344,0.151774587894291,0.0174317667296059,5,13.9133680555556,29.9
4.36666666666667,11.8579040525708,24.6033415586056,0.168656135455064,0.0168815475607734,5,13.9133680555556,29.9
4.4,11.8579365777276,24.6092370857468,0.184990226763001,0.0163340913079364,5,13.9133680555556,29.9
4.43333333333333,11.8579721899698,24.6156680179563,0.20078359060487,0.0157933638418696,5,13.9133680555556,29.9
4.46666666666667,11.858010837146,24.6226164739492,0.216045915930484,0.0152623253256137,5,13.9133680555556,29.9
4.5,11.8580524742476,24.6300649552162,0.230789601104867,0.0147436851743833,5,13.9133680555556,29.9
4.53333333333333,11.8580972208639,24.6380253107186,0.24676714778641,0.0159775466815424,5,13.9133680555556,29.9
4.56666666666667,11.8581456799137,24.6465971754222,0.267484297330298,0.0207171495438883,4,13.9133680555556,29.9
4.6,11.8581984640961,24.6558809967632,0.289484270704271,0.021999973373973,4,13.9133680555556,29.9
4.63333333333333,11.8582555640127,24.6658621117911,0.309322050833673,0.0198377801294015,4,13.9133680555556,29.9
4.66666666666667,11.8583168191163,24.6764972460582,0.328726702429228,0.0194046515955557,4,13.9133680555556,29.9
4.7,11.8583822302347,24.6877721028114,0.347706863988975,0.0189801615597468,4,13.9133680555556,29.9
4.73333333333333,11.8584521169036,24.6997304049047,0.369733346791312,0.022026482802337,4,13.9133680555556,29.9
4.76666666666667,11.8585272720652,24.7125022264902,0.396514478278563,0.0267811314872506,4,13.9133680555556,29.9
4.8,11.8586086438299,24.7262454899657,0.428013051875354,0.0314985735967912,4,13.9133680555556,29.9
4.83333333333333,11.8586968603628,24.7410588178657,0.460710907516308,0.0326978556409542,4,13.9133680555556,29.9
4.86666666666667,11.8587925448055,24.7570389808694,0.498011030616716,0.0373001231004079,4,13.9133680555556,29.9
4.9,11.85889615404,24.7742514871853,0.534640268542614,0.0366292379258977,4,13.9133680555556,29.9
4.93333333333333,11.8590078206586,24.7927018940295,0.572277382645763,0.0376371141031494,4,13.9133680555556,29.9
4.96666666666667,11.8591278281978,24.81242290228,0.610870482182763,0.0385930995369994,4,13.9133680555556,29.9
5,11.8592562918885,24.8334165762619,0.648633923602801,0.0377634414200385,4,13.9133680555556,29.9
5.03333333333333,11.8593931577792,24.8556547829782,0.685541634238259,0.0369077106354579,4,13.9133680555556,29.9
5.06666666666667,11.8595383622636,24.8791089208513,0.721597987412039,0.0360563531737795,4,13.9133680555556,29.9
5.1,11.8596918360746,24.9037513250655,0.75684710172705,0.0352491143150113,4,13.9133680555556,29.9
5.13333333333333,11.8598535036921,24.9295557819867,0.791329101688719,0.0344819999616693,4,13.9133680555556,29.9
5.16666666666667,11.8600232792203,24.9564973061058,0.825077804765735,0.0337487030770159,4,13.9133680555556,29.9
5.2,11.8602010632048,24.9845519555034,0.858122276376127,0.033044471610392,4,13.9133680555556,29.9
5.23333333333333,11.8603867405976,25.0136966919866,0.890487960837101,0.0323656844609741,4,13.9133680555556,29.9
5.26666666666667,11.8605801798689,25.0439092628421,0.92219480181056,0.0317068409734588,4,13.9133680555556,29.9
5.3,11.8607812300438,25.0751675156817,0.953223098917365,0.0310282971068051,4,13.9133680555556,29.9
5.33333333333333,11.860989716043,25.1074482218947,0.983539143454148,0.0303160445367824,4,13.9133680555556,29.9
5.36666666666667,11.861205442893,25.1407273093178,1.01312573301389,0.0295865895597472,4,13.9133680555556,29.9
5.4,11.861428202098,25.1749803193571,1.04197578852871,0.0288500555148119,4,13.9133680555556,29.9
5.43333333333333,11.8616577778048,25.2101826973924,1.07009069918623,0.0281149106575258,4,13.9133680555556,29.9
5.46666666666667,11.861893953356,25.2463100651727,1.09747908519857,0.0273883860123363,4,13.9133680555556,29.9
5.5,11.8621365176399,25.2833384213178,1.1241544857522,0.0266754005536345,4,13.9133680555556,29.9
5.53333333333333,11.8623852710778,25.3212442973451,1.15013682186738,0.0259823361151723,4,13.9133680555556,29.9
5.56666666666667,11.8626400329976,25.3600052298572,1.17546723650628,0.0253304146389044,4,13.9133680555556,29.9
5.6,11.8629006483376,25.3996002371621,1.20018909374358,0.0247218572372994,4,13.9133680555556,29.9
5.63333333333333,11.8631669897455,25.4400096596086,1.22433867149504,0.0241495777514587,4,13.9133680555556,29.9
5.66666666666667,11.8634389582089,25.4812149513193,1.24794681952343,0.0236081480283925,4,13.9133680555556,29.9
5.7,11.8637164826412,25.5231985204417,1.27104018626728,0.0230933667438509,4,13.9133680555556,29.9
5.73333333333333,11.8639995183114,25.5659436050871,1.29364213303724,0.0226019467699543,4,13.9133680555556,29.9
5.76666666666667,11.8642880441214,25.6094341759401,1.31577341861685,0.0221312855796112,4,13.9133680555556,29.9
5.8,11.8645820588419,25.6536548588708,1.33745271518865,0.0216792965718009,4,13.9133680555556,29.9
5.83333333333333,11.8648815765141,25.6985908726136,1.35869705847198,0.0212443432833356,4,13.9133680555556,29.9
5.86666666666667,11.8651866210032,25.7442279285448,1.37951656284273,0.0208195043707493,4,13.9133680555556,29.9
5.9,11.8654972185707,25.7905518444472,1.399909867918,0.0203933050752678,4,13.9133680555556,29.9
5.93333333333333,11.8658133921196,25.8375484329998,1.41987894445777,0.0199690765397726,4,13.9133680555556,29.9
5.96666666666667,11.8661351573155,25.8852036377148,1.43942940718608,0.0195504627283103,4,13.9133680555556,29.9
6,11.8664625192381,25.9335036332477,1.45856931369496,0.0191399065088755,4,13.9133680555556,29.9
6.03333333333333,11.8667954698208,25.9824348914866,1.47730829821717,0.0187389845222099,4,13.9133680555556,29.9
6.06666666666667,11.8671339863044,26.0319842230388,1.49565695023734,0.0183486520201681,4,13.9133680555556,29.9
6.1,11.8674780308187,26.0821388011533,1.51362637188412,0.0179694216467861,2,13.9133680555556,29.9
6.13333333333333,11.8678275510976,26.1328861732091,1.53122786571119,0.0176014938270692,2,13.9133680555556,29.9
6.16666666666667,11.8681824822361,26.1842142635031,1.54847271743859,0.0172448517274006,2,13.9133680555556,29.9
