Time,x_ego,y_ego,velocity,acceleration,action,x_ped,y_ped
0,11.8,8.9,7,0,1,15.5,29.9
0.0333333333333333,11.8,9.13327037939431,6.99615577953002,-0.00384422046998356,1,15.5,29.9
0.0666666666666667,11.8,9.36640659881126,6.99196947109348,-0.00418630843653833,1,15.5,29.9
0.1,11.8,9.59940075527911,6.98769498718995,-0.00427448390352669,1,15.5,29.9
0.133333333333333,11.8,9.83225378528415,6.9834976545359,-0.00419733265404787,1,15.5,29.9
0.166666666666667,11.8,10.0649678802301,6.97935585456763,-0.00414179996826913,1,15.5,29.9
0.2,11.8,10.2975446186632,6.97525409491249,-0.00410175965514537,1,15.5,29.9
0.233333333333333,11.8,10.5299851399444,6.97118127319767,-0.00407282171482137,1,15.5,29.9
0.266666666666667,11.8,10.7622902687052,6.96712943294736,-0.00405184025031069,1,15.5,29.9
0.3,11.8000033208708,10.9944606040294,6.96309287760904,-0.00403655533831948,1,15.5,29.9
0.333333333333333,11.8000241078449,11.2264965832263,6.95906756498993,-0.00402531261910788,1,15.5,29.9
0.366666666666667,11.8000736289986,11.4583985269487,6.95505060857874,-0.00401695641119026,1,15.5,29.9
0.4,11.8001577378047,11.6901666712512,6.9510398994033,-0.00401070917544288,1,15.5,29.9
0.433333333333333,11.8002784793289,11.9218011910418,6.94703388754905,-0.00400601185424865,1,15.5,29.9
0.466666666666667,11.8004355350671,12.1533022175453,6.94303144673886,-0.00400244081018997,1,15.5,29.9
0.5,11.8006273336534,12.3846698512322,6.93903177371538,-0.00399967302347992,1,15.5,29.9
0.533333333333333,11.8008517886375,12.6159041711802,6.93503430490372,-0.00399746881165441,1,15.5,29.9
0.566666666666667,11.8011067145798,12.8470052416749,6.93103864791098,-0.00399565699274529,1,15.5,29.9
0.6,11.8013900166685,13.0779731167638,6.92704452876858,-0.00399411914239423,1,15.5,29.9
0.633333333333333,11.8016997543725,13.308807843357,6.92305175420031,-0.00399277456827818,1,15.5,29.9
0.666666666666667,11.8020341591966,13.5395094633237,6.91906018621145,-0.00399156798885247,1,15.5,29.9
0.7,11.8023916545341,13.7700780148965,6.91506972555244,-0.0039904606590131,1,15.5,29.9
0.733333333333333,11.8027708939671,14.0005135335963,6.91108030094361,-0.00398942460882878,1,15.5,29.9
0.766666666666667,11.8031708111271,14.2308160528343,6.90709186174566,-0.00398843919795322,1,15.5,29.9
0.8,11.8035906627587,14.4609856043054,6.90310437259154,-0.00398748915412206,1,15.5,29.9
0.833333333333333,11.8040300462708,14.6910222182636,6.89911780917406,-0.00398656341748094,1,15.5,29.9
0.866666666666667,11.8044888804729,14.9209259237465,6.89513215484675,-0.00398565432730802,1,15.5,29.9
0.9,11.8049673489594,15.1506967487875,6.89114739794153,-0.00398475690521671,1,15.5,29.9
0.933333333333333,11.8054658156094,15.3803347206377,6.88716352977929,-0.00398386816223706,1,15.5,29.9
0.966666666666667,11.8059847280566,15.6098398659941,6.8831805433265,-0.00398298645279649,1,15.5,29.9
1,11.806524526574,15.8392122112241,6.87919843240559,-0.00398211092091127,1,15.5,29.9
1.03333333333333,11.8070855729556,16.0684517825625,6.87521719133925,-0.0039812410663318,1,15.5,29.9
1.06666666666667,11.8076681081202,16.2975586062645,6.87123681490127,-0.00398037643798776,1,15.5,29.9
1.1,11.8082722402274,16.5265327087001,6.86725729844873,-0.00397951645253247,1,15.5,29.9
1.13333333333333,11.8088979589006,16.7553741163894,6.86327863811724,-0.00397866033149619,1,15.5,29.9
1.16666666666667,11.8095451669742,16.9840828559871,6.8593008309765,-0.00397780714073903,1,15.5,29.9
1.2,11.810213719587,17.2126589542331,6.85532387507653,-0.00397695589996694,1,15.5,29.9
1.23333333333333,11.8109034612738,17.4411024378889,6.85134776935939,-0.00397610571713702,1,15.5,29.9
1.26666666666667,11.8116142542937,17.669413333679,6.84737251345705,-0.0039752559023416,1,15.5,29.9
1.3,11.8123459948495,17.8975916682497,6.84339810742732,-0.00397440602973465,1,15.5,29.9
1.33333333333333,11.8130986171782,18.1256374681514,6.83942455148928,-0.0039735559380345,1,15.5,29.9
1.36666666666667,11.8138720880373,18.353550759845,6.83545184580912,-0.00397270568016239,1,15.5,29.9
1.4,11.8146663954991,18.5813315697238,6.83147999036518,-0.00397185544394496,1,15.5,29.9
1.43333333333333,11.8154815361661,18.8089799241451,6.82750898489742,-0.00397100546775864,1,15.5,29.9
1.46666666666667,11.8163175041754,19.0364958494593,6.82353882892765,-0.00397015596977113,1,15.5,29.9
1.5,11.817174284059,19.2638793720327,6.81956952182594,-0.00396930710170729,1,15.5,29.9
1.53333333333333,11.8180518480936,19.4911305182576,6.81560106289578,-0.00396845893015918,1,15.4777777777778,29.9
1.56666666666667,11.8189501575648,19.7182493145514,6.81163345145364,-0.00396761144213809,1,15.4111111111111,29.9
1.6,11.8198691665975,19.9452357873469,6.80766668688607,-0.0039667645675765,1,15.3,29.9
1.63333333333333,11.8208088269438,20.1720899630778,6.80370076867658,-0.00396591820948267,1,15.1698412698413,29.9
1.66666666666667,11.8217690922933,20.3988118681645,6.79973569640356,-0.00396507227301957,1,15.0460317460317,29.9
1.7,11.8227499211466,20.6254015290038,6.79577146971657,-0.00396422668699792,1,14.9285714285714,29.9
1.73333333333333,11.8237512778695,20.8518589719637,6.791808088302,-0.00396338141456809,1,14.8174603174603,29.9
1.76666666666667,11.8247731320802,21.0781842233844,6.78784555184875,-0.00396253645324585,1,14.7126984126984,29.9
1.8,11.8258154568887,21.3043773095845,6.78388386002193,-0.00396169182682016,1,14.6142857142857,29.9
1.83333333333333,11.8268782266637,21.5304382568685,6.77992301244883,-0.00396084757310433,1,14.5222222222222,29.9
1.86666666666667,11.8279614149635,21.7563670915354,6.7759630087175,-0.00396000373132921,1,14.4365079365079,29.9
1.9,11.8290649930864,21.9821638398848,6.77200384838524,-0.00395916033225951,1,14.3571428571429,29.9
1.93333333333333,11.8301889294464,22.2078285282201,6.76804553099258,-0.00395831739266139,1,14.284126984127,29.9
1.96666666666667,11.8313331897418,22.4333611828484,6.7640880560782,-0.00395747491437959,1,14.2174603174603,29.9
2,11.8324977377063,22.6587618300781,6.76013142319105,-0.0039566328871512,1,14.1571428571429,29.9
2.03333333333333,11.8336825361414,22.8840304962146,6.75617563189741,-0.00395579129363632,1,14.1031746031746,29.9
2.06666666666667,11.8348875479344,23.1091672075557,6.75222068178245,-0.00395495011496383,1,14.0555555555556,29.9
2.1,11.8361127368311,23.3341719903881,6.74826657244705,-0.00395410933539697,1,14.0142857142857,29.9
2.13333333333333,11.8373580678447,23.559044870985,6.74431330350187,-0.00395326894518,1,13.9793650793651,29.9
2.16666666666667,11.8386235072893,23.7837858756059,6.74036087456049,-0.00395242894138104,1,13.9507936507936,29.9
2.2,11.8399090225173,24.0083950304974,6.73640928523355,-0.00395158932693551,1,13.9285714285714,29.9
2.23333333333333,11.8412145814874,24.2328723618952,6.73245853512498,-0.00395075010857227,1,13.9126984126984,29.9
2.26666666666667,11.8425409670054,24.4572178916808,6.72850866614559,-0.00394986897938576,1,13.9031746031746,29.9
2.3,11.8438924461258,24.6814316225312,6.72455973968597,-0.00394892645962841,1,13.9,29.9
2.33333333333333,11.845276045594,24.9055135402559,6.7206117948178,-0.00394794486816341,1,13.9,29.9
2.36666666666667,11.846699315756,25.1294636247944,6.71666480870944,-0.00394698610836475,1,13.9,29.9
2.4,11.8481668788781,25.3532818693304,6.71271870792065,-0.00394610078878443,1,13.9,29.9
2.43333333333333,11.8496805382698,25.5769682809788,6.70877342706911,-0.00394528085154455,1,13.9,29.9
2.46666666666667,11.8512402570592,25.8005228766458,6.70482891977628,-0.00394450729282614,1,13.9,29.9
2.5,11.8528449501371,26.023945679614,6.70088516357095,-0.00394375620533616,1,13.9,29.9
2.53333333333333,11.8544930422432,26.2472367170396,6.69694215652383,-0.00394300704711892,1,13.9,29.9
2.56666666666667,11.8561828102783,26.470396018288,6.69299990941382,-0.0039422471100039,1,13.9,29.9
2.6,11.8579125634946,26.6934236139046,6.6890584378516,-0.00394147156222502,1,13.9,29.9
2.63333333333333,11.8596807245287,26.9163195349752,6.68511775689204,-0.00394068095955813,1,13.9,29.9
2.66666666666667,11.8614858649015,27.1390838126591,6.68117787860728,-0.00393987828475861,1,13.9,29.9
2.7,11.8633267297015,27.3617164777483,6.67723881187318,-0.00393906673410616,1,13.9,29.9
2.73333333333333,11.865202265907,27.5842175601986,6.67330056326883,-0.00393824860434311,1,13.9,29.9
2.76666666666667,11.8671116530177,27.8065870886634,6.6693631381625,-0.00393742510633022,1,13.9,29.9
2.8,11.8690543261656,28.0288250901084,6.66542654143445,-0.00393659672805047,1,13.9,29.9
2.83333333333333,11.8710299807066,28.2509315895961,6.6614907776651,-0.00393576376935201,1,13.9,29.9
2.86666666666667,11.8730385515527,28.4729066102976,6.65755585088955,-0.00393492677554974,1,13.9,29.9
2.9,11.8750801673285,28.6947501737424,6.65362176415183,-0.00393408673771845,1,13.9,29.9
2.93333333333333,11.8771550860467,28.9164623002601,6.64968851909828,-0.0039332450535472,1,13.9,29.9
2.96666666666667,11.8792636233404,29.1380430095315,6.64575611577722,-0.00393240332106259,1,13.9,29.9
3,11.881406085434,29.3594923211463,6.64182455271364,-0.00393156306358389,1,13.9,29.9
3.03333333333333,11.8835827171006,29.5808102550732,6.63789382724007,-0.00393072547356699,1,13.9,29.9
3.06666666666667,11.8857936707796,29.8019968319746,6.63396393600344,-0.00392989123663057,1,13.9,29.9
3.1,11.8880389981214,30.0230520733377,6.63003487553506,-0.00392906046837815,1,13.9,29.9
3.13333333333333,11.8903186607743,30.2439760014328,6.62610664276632,-0.00392823276874044,1,13.9,29.9
3.16666666666667,11.8926325541726,30.4647686391421,6.62217923539397,-0.00392740737235009,1,13.9,29.9
3.2,11.8949805368667,30.6854300097185,6.61825265204131,-0.00392658335266205,1,13.9,29.9
3.23333333333333,11.8973624584794,30.9059601365386,6.61432689221373,-0.00392575982758192,1,13.9,29.9
3.26666666666667,11.899778181227,31.1263590428987,6.61040195609395,-0.00392493611977773,1,13.9,29.9
3.3,11.9022260303322,31.3466267676642,6.60647770308099,-0.00392425301296218,1,13.9,29.9
3.33333333333333,11.9046984242725,31.5667634112348,6.60255402620137,-0.00392367687962292,1,13.8991319444444,29.9
3.36666666666667,11.9071856975699,31.7867691000188,6.59863098469944,-0.00392304150192579,1,13.8965277777778,29.9
3.4,11.909678108439,32.0066439661094,6.59470867143726,-0.00392231326218262,1,13.8921875,29.9
3.43333333333333,11.9121663087715,32.2263881412164,6.59078718299034,-0.00392148844691675,1,13.8861111111111,29.9
3.46666666666667,11.9146416806878,32.4460017514803,6.58686659864195,-0.00392058434838738,1,13.8782986111111,29.9
3.5,11.9170970635486,32.6654849079475,6.58294699644,-0.00391960220194854,1,13.86875,29.9
3.53333333333333,11.919529333375,32.8848376771217,6.57902839844496,-0.0039185979950469,1,13.8574652777778,29.9
3.56666666666667,11.921938710555,33.1040600873161,6.57511076156989,-0.00391763687506241,1,13.8444444444444,29.9
3.6,11.9243274116568,33.3231521433662,6.57119402901125,-0.00391673255864688,1,13.8296875,29.9
3.63333333333333,11.9266986603138,33.5421138380444,6.56727815601347,-0.00391587299778084,1,13.8131944444444,29.9
3.66666666666667,11.929056031158,33.7609451598526,6.56336311578073,-0.00391504023273814,1,13.7949652777778,29.9
3.7,11.9314030510454,33.9796460977747,6.55944889582606,-0.00391421995467223,1,13.775,29.9
3.73333333333333,11.9337437657588,34.1982166353589,6.5555354875379,-0.00391340828815956,1,13.7532986111111,29.9
3.76666666666667,11.9360844305298,34.4166567325762,6.55162289290368,-0.00391259463421978,1,13.7298611111111,29.9
3.8,11.9384301624069,34.6349663618096,6.54771112334442,-0.00391176955925854,1,13.7046875,29.9
3.83333333333333,11.9407842383545,34.8531455151575,6.54380018473122,-0.00391093861320169,1,13.6777777777778,29.9
3.86666666666667,11.9431484245238,35.0711942007489,6.53989007634257,-0.00391010838864325,1,13.6491319444444,29.9
3.9,11.9455240741803,35.2891124309088,6.53598080148236,-0.0039092748602112,1,13.61875,29.9
3.93333333333333,11.9479149671838,35.506900191444,6.53207237822747,-0.0039084232548916,1,13.5866319444444,29.9
3.96666666666667,11.9503263124214,35.7245574520871,6.52816481791467,-0.00390756031280315,1,13.5527777777778,29.9
4,11.9527618634576,35.9420841974601,6.52425812855421,-0.0039066893604538,1,13.5171875,29.9
4.03333333333333,11.9552255223355,36.1594804095075,6.5203523087205,-0.00390581983371785,1,13.4798611111111,29.9
4.06666666666667,11.9577190755992,36.376746092173,6.51644732401548,-0.00390498470501388,1,13.4407986111111,29.9
4.1,11.9602422834527,36.5938812709516,6.51254313858008,-0.00390418543540694,1,13.4,29.9
4.13333333333333,11.9627937395915,36.8108859841057,6.50863972752154,-0.0039034110585332,1,13.3574652777778,29.9
4.16666666666667,11.9653715253264,37.0277602759743,6.50473708100472,-0.00390264651681793,1,13.3131944444444,29.9
4.2,11.9679736402796,37.2445041924971,6.50083520149121,-0.00390187951351351,1,13.2671875,29.9
4.23333333333333,11.970598239554,37.4611177786504,6.49693409819373,-0.00390110329747717,1,13.2194444444444,29.9
4.26666666666667,11.9732437312884,37.6776010772753,6.49303378202913,-0.00390031616460362,1,13.1699652777778,29.9
4.3,11.9759087922154,37.8939541287431,6.48913426251664,-0.0038995195124949,1,13.11875,29.9
4.33333333333333,11.9785923485561,38.1101769709895,6.48523554662233,-0.00389871589430246,1,13.0657986111111,29.9
4.36666666666667,11.9812935525662,38.326269639612,6.4813376388921,-0.00389790773022991,1,13.0111111111111,29.9
4.4,11.9840117676847,38.5422321678946,6.47744054214775,-0.00389709674434791,1,12.9546875,29.9
4.43333333333333,11.9867465619395,38.758064586767,6.47354425822396,-0.00389628392379837,1,12.8965277777778,29.9
4.46666666666667,11.9894977020687,38.9737669247837,6.46964878847665,-0.00389546974730326,1,12.8366319444444,29.9
4.5,11.9922651395908,39.1893392082234,6.4657541339984,-0.00389465447824922,1,12.775,29.9
4.53333333333333,11.99504898318,39.4047814613763,6.46186029560362,-0.00389383839478263,1,12.7116319444444,29.9
