Time,x_ego,y_ego,velocity,acceleration,action,x_ped,y_ped
0,11.8,15.9,5,0,1,15.5,29.9
0.0333333333333333,11.7999987949697,16.0666076888414,4.99642261544275,-0.00357738455724732,1,15.5,29.9
0.0666666666666667,11.7999910643553,16.2330926530923,4.99264758049872,-0.00377503494402998,1,15.5,29.9
0.1,11.7999722109856,16.3994492967146,4.98873134825762,-0.00391623224109949,1,15.5,29.9
0.133333333333333,11.799940172003,16.5656736235656,4.98471436473653,-0.00401698352109658,1,15.5,29.9
0.166666666666667,11.7998964973702,16.7317627842524,4.9806256026836,-0.00408876205292508,1,15.5,29.9
0.2,11.7998442001319,16.8977147515173,4.97648582140324,-0.00413978128035808,1,15.5,29.9
0.233333333333333,11.7997882444599,17.0635280877556,4.97230990943375,-0.00417591196949463,1,15.5,29.9
0.266666666666667,11.7997329256858,17.2292017780799,4.9681085607383,-0.00420134869544775,1,15.5,29.9
0.3,11.7996842669183,17.394735110908,4.96388941342408,-0.00421914731421946,1,15.5,29.9
0.333333333333333,11.7996573566189,17.5601275932405,4.95965804603303,-0.00423136739105612,1,15.5,29.9
0.366666666666667,11.799664493321,17.7253788865098,4.95541852419382,-0.00423952183920573,1,15.5,29.9
0.4,11.799712377639,17.8904887604533,4.95117368722674,-0.00424483696708222,1,15.5,29.9
0.433333333333333,11.7998031667481,18.0554570612305,4.94692547832334,-0.00424820890339461,1,15.5,29.9
0.466666666666667,11.7999356721546,18.2202836898358,4.94267522766036,-0.00425025066298002,1,15.5,29.9
0.5,11.800106492392,18.3849685876012,4.9384238666221,-0.00425136103826329,1,15.5,29.9
0.533333333333333,11.8003109676176,18.5495117262239,4.9341720715666,-0.0042517950555041,1,15.5,29.9
0.566666666666667,11.800543921452,18.7139131005231,4.92992035119833,-0.0042517203682646,1,15.5,29.9
0.6,11.8008002064727,18.8781727228426,4.92566909669861,-0.00425125449972086,1,15.5,29.9
0.633333333333333,11.8010750925096,19.0422906185316,4.92141861092423,-0.00425048577437881,1,15.5,29.9
0.666666666666667,11.8013645372158,19.2062668222489,4.91716912719544,-0.00424948372879541,1,15.5,29.9
0.7,11.8016653658979,19.370101374983,4.9129208230593,-0.00424830413613364,1,15.5,29.9
0.733333333333333,11.8019753721103,19.5337943217279,4.90867383126902,-0.00424699179027854,1,15.5,29.9
0.766666666666667,11.8022933395329,19.6973457097595,4.90442824882993,-0.00424558243909789,1,15.5,29.9
0.8,11.8026189828816,19.8607555874395,4.90018414453831,-0.0042441042916197,1,15.5,29.9
0.833333333333333,11.8029528109225,20.0240240034675,4.89594156531039,-0.00424257922791327,1,15.5,29.9
0.866666666666667,11.8032959250602,20.187151006491,4.89170054146566,-0.00424102384473279,1,15.5,29.9
0.9,11.8036497780661,20.3501366449899,4.88746109099798,-0.00423945046767926,1,15.5,29.9
0.933333333333333,11.8040159251478,20.5129809673514,4.88322322284979,-0.00423786814818783,1,15.5,29.9
0.966666666666667,11.8043958010159,20.6756840220553,4.87898693932858,-0.00423628352121241,1,15.5,29.9
1,11.8047905512329,20.8382458578956,4.87475223796886,-0.00423470135971993,1,15.5,29.9
1.03333333333333,11.8052009352387,21.0006665241751,4.87051911319369,-0.00423312477516635,1,15.5,29.9
1.06666666666667,11.8056273047608,21.1629460708239,4.86628755799519,-0.00423155519850127,1,15.5,29.9
1.1,11.806069648063,21.32508454842,4.86205756560099,-0.00422999239420108,1,15.5,29.9
1.13333333333333,11.8065276804828,21.4870820081132,4.85782913087969,-0.00422843472130108,1,15.5,29.9
1.16666666666667,11.8070003553448,21.6489385027174,4.85360220513436,-0.00422692574532757,1,15.5,29.9
1.2,11.8074833427985,21.8106540924463,4.84937668200218,-0.00422552313218727,1,15.5,29.9
1.23333333333333,11.8079674833154,21.9722288497112,4.84515250258663,-0.00422417941554709,1,15.5,29.9
1.26666666666667,11.8084389062333,22.133662860387,4.84092968310557,-0.00422281948105496,1,15.5,29.9
1.3,11.8088768990531,22.2949562290463,4.83670845547703,-0.00422122762854205,1,15.5,29.9
1.33333333333333,11.809256563999,22.4561090707539,4.83248937419197,-0.00421908128506399,1,15.5,29.9
1.36666666666667,11.809554813751,22.6171214908834,4.82827302088328,-0.00421635330868675,1,15.5,29.9
1.4,11.8097562823669,22.7779935640747,4.82405957791434,-0.00421344296893977,1,15.5,29.9
1.43333333333333,11.8098542860821,22.9387253292157,4.81984863800988,-0.00421093990445698,1,15.5,29.9
1.46666666666667,11.8098530818037,23.0993167894872,4.81563930525638,-0.00420933275349977,1,15.5,29.9
1.5,11.8097659164493,23.2597679287787,4.81143059217242,-0.00420871308396453,1,15.5,29.9
1.53333333333333,11.8096142270656,23.4200787284925,4.80722165154766,-0.00420894062475519,1,15.5,29.9
1.56666666666667,11.8094259506085,23.5802491840058,4.80301228558152,-0.00420936596614041,1,15.5,29.9
1.6,11.809230063586,23.7402793177569,4.79880301387222,-0.00420927170930341,1,15.5,29.9
1.63333333333333,11.8090537019538,23.9001691775839,4.79459465314067,-0.00420836073155506,1,15.5,29.9
1.66666666666667,11.8089202504086,24.0599188275773,4.79038810489727,-0.00420654824339461,1,15.5,29.9
1.7,11.8088464863936,24.2195283375177,4.78618402555875,-0.00420407933852474,1,15.5,29.9
1.73333333333333,11.8088425194517,24.3789977731062,4.78198264713165,-0.00420137842709511,1,15.5,29.9
1.76666666666667,11.8089123241483,24.538327191546,4.77778387187786,-0.00419877525379508,1,15.5,29.9
1.8,11.8090528862848,24.697516642846,4.77358733626357,-0.00419653561428301,1,15.5,29.9
1.83333333333333,11.8092557213876,24.8565661736555,4.76939258640887,-0.00419474985470547,1,15.5,29.9
1.86666666666667,11.8095089896333,25.0154758317625,4.76519925453546,-0.00419333187340598,1,15.5,29.9
1.9,11.8097993987863,25.1742456692063,4.76100713759754,-0.00419211693792132,1,15.5,29.9
1.93333333333333,11.8101138088681,25.3328757430978,4.75681619582905,-0.004190941768492,1,15.5,29.9
1.96666666666667,11.8104404856061,25.4913661144467,4.75262650452186,-0.00418969130718772,1,15.5,29.9
2,11.8107699735288,25.6497168459049,4.74843819130934,-0.00418831321252267,1,15.5,29.9
2.03333333333333,11.8110955817117,25.8079279994,4.74425138227731,-0.00418680903202606,1,15.5,29.9
2.06666666666667,11.8114134999028,25.9659996343461,4.74006616900794,-0.00418521326937515,1,15.5,29.9
2.1,11.8117225900211,26.1239318067314,4.73588259839408,-0.00418357061385422,1,15.5,29.9
2.13333333333333,11.8120239242585,26.2817245690503,4.73170067966065,-0.00418191873343154,1,15.5,29.9
2.16666666666667,11.812320161033,26.4393779708569,4.7275203995668,-0.00418028009384841,1,15.5,29.9
2.2,11.8126148590714,26.5968920596584,4.72334173727925,-0.00417866228755681,1,15.5,29.9
2.23333333333333,11.8129118253411,26.7542668818966,4.71916467374653,-0.00417706353272074,1,15.5,29.9
2.26666666666667,11.8132145748343,26.9115024838371,4.7149891945964,-0.00417547915013028,1,15.5,29.9
2.3,11.8135259526797,27.0685989122545,4.71081528870409,-0.00417390589230937,1,15.5,29.9
2.33333333333333,11.8138479370919,27.2255562148699,4.7066429456242,-0.00417234307988679,1,15.5,29.9
2.36666666666667,11.8141816112668,27.3823744405415,4.7024721542409,-0.0041707913832969,1,15.5,29.9
2.4,11.8145272687032,27.5390536392447,4.69830290330537,-0.004169250935532,1,15.5,29.9
2.43333333333333,11.8148846029005,27.6955938618983,4.69413518312876,-0.00416772017660971,1,15.5,29.9
2.46666666666667,11.8152529298489,27.8519951601038,4.68996898720102,-0.00416619592774303,1,15.5,29.9
2.5,11.81563139878,28.0082575858581,4.68580431284971,-0.00416467435131107,1,15.5,29.9
2.53333333333333,11.8160191601611,28.1643811912931,4.68164116075818,-0.0041631520915244,1,15.5,29.9
2.56666666666667,11.8164154759939,28.3203660284747,4.67747953373292,-0.00416162702526623,1,15.5,29.9
2.6,11.8168197724082,28.4762121492775,4.67331943530772,-0.00416009842519305,1,15.5,29.9
2.63333333333333,11.8172316455683,28.6319196053315,4.66916086864461,-0.00415856666311676,1,15.5,29.9
2.66666666666667,11.8176508376547,28.7874884480243,4.66500383592717,-0.00415703271743162,1,15.5,29.9
2.7,11.8180772002226,28.9429187285347,4.66084833821492,-0.00415549771224999,1,15.5,29.9
2.73333333333333,11.8185106587572,29.0982104978748,4.65669437560923,-0.00415396260569612,1,15.5,29.9
2.76666666666667,11.8189511865893,29.2533638069222,4.65254194756272,-0.00415242804651239,1,15.5,29.9
2.8,11.8193987904263,29.4083787064366,4.64839105319797,-0.00415089436474592,1,15.5,29.9
2.83333333333333,11.8198535051205,29.5632552470619,4.64424169155156,-0.00414936164640789,1,15.5,29.9
2.86666666666667,11.8203153928135,29.7179934793231,4.64009386170756,-0.00414782984399853,1,15.5,29.9
2.9,11.8207845413752,29.8725934536276,4.63594756282402,-0.00414629888354057,1,15.5,29.9
2.93333333333333,11.8212610586106,30.0270552202799,4.63180279408329,-0.00414476874072811,1,15.5,29.9
2.96666666666667,11.8217450611728,30.1813788295116,4.62765955460989,-0.00414323947340733,1,15.5,29.9
3,11.8222366595704,30.3355643315235,4.62351784339791,-0.0041417112119797,1,15.5,29.9
3.03333333333333,11.8227359423523,30.4896117765333,4.61937765927813,-0.00414018411977413,1,15.5,29.9
3.06666666666667,11.8232429630917,30.6435212148172,4.61523900093747,-0.00413865834066396,1,15.5,29.9
3.1,11.8237577331725,30.7972926967376,4.6111018669861,-0.00413713395137272,1,15.5,29.9
3.13333333333333,11.8242802219215,30.950926272751,4.60696625605363,-0.00413561093246528,1,15.5,29.9
3.16666666666667,11.8248103638305,31.1044219933935,4.60283216688765,-0.00413408916598623,1,15.5,29.9
3.2,11.8253480709945,31.2577799092505,4.5986995984279,-0.00413256845974086,1,15.5,29.9
3.23333333333333,11.8258932478705,31.4110000709156,4.59456854983733,-0.00413104859057434,1,15.5,29.9
3.26666666666667,11.8264458052187,31.5640825289491,4.59043902048379,-0.00412952935353772,1,15.5,29.9
3.3,11.8270056706113,31.7170273338436,4.58631100988075,-0.00412801060304435,1,15.5,29.9
3.33333333333333,11.8275727939517,31.8698345360044,4.58218451760486,-0.00412649227589057,1,15.5,29.9
3.36666666666667,11.8281471477228,32.0225041857438,4.57805954321237,-0.00412497439248849,1,15.5,29.9
3.4,11.8287287228501,32.1750363332913,4.57393608617309,-0.00412345703927741,1,15.5,29.9
3.43333333333333,11.829317521853,32.327431028812,4.56981414583356,-0.00412194033953206,1,15.5,29.9
3.46666666666667,11.8299135512521,32.4796883224301,4.56569372141231,-0.00412042442125315,1,15.5,29.9
3.5,11.8305168150008,32.6318082642502,4.56157481202259,-0.00411890938971382,1,15.5,29.9
3.53333333333333,11.8311273101405,32.7837909043719,4.55745741671274,-0.00411739530984878,1,15.5,29.9
3.56666666666667,11.8317450251452,32.9356362928974,4.5533415345122,-0.00411588220054249,1,15.5,29.9
3.6,11.8323699407072,33.0873444799291,4.54922716447208,-0.00411437004011805,1,15.5,29.9
3.63333333333333,11.8330020322034,33.238915515563,4.54511430569219,-0.0041128587798962,1,15.5,29.9
3.66666666666667,11.833641272839,33.3903494498776,4.54100295733084,-0.00411134836134242,1,15.5,29.9
3.7,11.8342876365198,33.5416463329246,4.5368931185987,-0.00410983873214121,1,15.5,29.9
3.73333333333333,11.8349410997702,33.6928062147215,4.53278478874121,-0.00410832985748844,1,15.5,29.9
3.76666666666667,11.8356016424023,33.8438291452491,4.52867796701645,-0.00410682172476218,1,15.5,29.9
3.8,11.8362692470237,33.9947151744531,4.5245726526748,-0.00410531434165584,1,15.5,29.9
3.83333333333333,11.836943897762,34.1454643522487,4.52046884494528,-0.00410380772951324,1,15.5,29.9
3.86666666666667,11.8376255787173,34.2960767285265,4.51636654303079,-0.00410230191449745,1,15.5,29.9
3.9,11.8383142726355,34.4465523531578,4.51226574611157,-0.00410079691921972,1,15.5,29.9
3.93333333333333,11.8390099601485,34.5968912759976,4.50816645335469,-0.00409929275687393,1,15.5,29.9
3.96666666666667,11.8397126197158,34.7470935468853,4.50406866392573,-0.00409778942896377,1,15.5,29.9
4,11.840422228191,34.8971592156421,4.49997237699921,-0.00409628692651776,1,15.5,29.9
4.03333333333333,11.8411387617807,35.0470883320681,4.49587759176525,-0.00409478523396078,1,15.5,29.9
4.06666666666667,11.8418621970917,35.1968809459368,4.49178430743112,-0.00409328433412792,1,15.5,29.9
4.1,11.842592511982,35.3465371069924,4.48769252321816,-0.00409178421296108,1,15.5,29.9
4.13333333333333,11.843329686021,35.4960568649468,4.48360223835546,-0.00409028486270291,1,15.5,29.9
4.16666666666667,11.8440737004917,35.64544026948,4.47951345207248,-0.00408878628298215,1,15.5,29.9
4.2,11.8448245379919,35.7946873702415,4.47542616359265,-0.00408728847982687,1,15.5,29.9
4.23333333333333,11.8455821817858,35.9437982168529,4.47134037212946,-0.0040857914631891,1,15.5,29.9
4.26666666666667,11.8463466150952,36.092772858911,4.46725607688564,-0.00408429524381759,1,15.5,29.9
4.3,11.847117820511,36.2416113459911,4.46317327705525,-0.00408279983038984,1,15.5,29.9
4.33333333333333,11.8478957796455,36.3903137276478,4.45909197182771,-0.00408130522754568,1,15.5,29.9
4.36666666666667,11.8486804730738,36.5388800534163,4.45501216039248,-0.00407981143522296,1,15.5,29.9
4.4,11.8494718805306,36.687310372811,4.45093384194325,-0.00407831844923212,1,15.5,29.9
4.43333333333333,11.850269981276,36.8356047353244,4.44685701568049,-0.00407682626276173,1,15.5,29.9
4.46666666666667,11.8510747545142,36.9837631904247,4.44278168081221,-0.00407533486827916,1,15.5,29.9
4.5,11.8518861797552,37.1317857875543,4.43870783655288,-0.00407384425933,1,15.5,29.9
4.53333333333333,11.8527042370438,37.2796725761287,4.43463548212111,-0.00407235443177267,1,15.5,29.9
4.56666666666667,11.8535289070219,37.4274236055361,4.43056461673685,-0.00407086538425894,1,15.5,29.9
4.6,11.8543601708382,37.5750389251376,4.4264952396189,-0.00406937711795408,1,15.5,29.9
4.63333333333333,11.8551980099558,37.7225185842685,4.42242734998323,-0.00406788963567006,1,15.5,29.9
4.66666666666667,11.8560424059218,37.8698626322389,4.41836094704246,-0.00406640294076777,1,15.5,29.9
4.7,11.8568933401641,38.0170711183355,4.41429603000637,-0.00406491703609024,1,15.5,29.9
4.73333333333333,11.8577507938615,38.1641440918214,4.41023259808317,-0.00406343192319891,1,15.5,29.9
4.76666666666667,11.8586147479069,38.3110816019374,4.40617065048108,-0.00406194760208578,1,15.5,29.9
4.8,11.8594851829572,38.4578836979007,4.4021101864098,-0.00406046407128091,1,15.5,29.9
4.83333333333333,11.8603620795426,38.6045504289052,4.39805120508144,-0.00405898132836313,1,15.5,29.9
4.86666666666667,11.8612454181974,38.7510818441203,4.39399370571087,-0.00405749937057021,1,15.5,29.9
4.9,11.8621351795741,38.8974779926906,4.38993768751543,-0.00405601819543921,1,15.5,29.9
4.93333333333333,11.8630313445161,39.0437389237354,4.38588314971419,-0.00405453780123644,1,15.5,29.9
4.96666666666667,11.8639338940753,39.1898646863485,4.38183009152705,-0.00405305818714208,1,15.5,29.9
5,11.8648428094792,39.3358553295986,4.37777851217388,-0.00405157935317479,1,15.5,29.9
5.03333333333333,11.8657580720642,39.4817109025294,4.37372841087396,-0.0040501012999119,1,15.5,29.9
5.06666666666667,11.8666796631966,39.6274314541603,4.36967978684585,-0.00404862402811634,1,15.5,29.9
