Time,x_ego,y_ego,velocity,acceleration,action,x_ped,y_ped
0,11.8,15.9,7,0,1,15.5,29.9
0.0333333333333333,11.8000033352482,16.1332703793902,6.99615578502647,-0.00384421497352516,1,15.4972222222222,29.9
0.0666666666666667,11.8000250478384,16.3664065986381,6.99196954138882,-0.0041862436376503,1,15.4888888888889,29.9
0.1,11.800081670149,16.599400753499,6.98769529436875,-0.0042742470200734,1,15.475,29.9
0.133333333333333,11.800189763301,16.832253783916,6.9834993584545,-0.00419593591425471,1,15.4555555555556,29.9
0.166666666666667,11.8003620143775,17.0649679549816,6.97936380306613,-0.00413555538836974,1,15.4305555555556,29.9
0.2,11.8006043712841,17.2975450655926,6.97527819974799,-0.00408560331813934,1,15.4,29.9
0.233333333333333,11.8009176824974,17.529986648377,6.97123644053881,-0.00404175920917549,1,15.3666666666667,29.9
0.266666666666667,11.8012998425916,17.7622940785292,6.96723473256959,-0.00400170796921984,1,15.3333333333333,29.9
0.3,11.8017473093816,17.9944686323947,6.96327049980855,-0.00396423276104407,1,15.3,29.9
0.333333333333333,11.8022560409056,18.2265115144263,6.95934169763383,-0.00392880217472147,1,15.2666666666667,29.9
0.366666666666667,11.8028219947315,18.4584238698769,6.95544660620591,-0.00389509142791589,1,15.2333333333333,29.9
0.4,11.8034413566603,18.6902067914818,6.95158359400441,-0.00386301220150109,1,15.2,29.9
0.433333333333333,11.8041106415942,18.9218613160343,6.94775079175048,-0.00383280225392468,1,15.1666666666667,29.9
0.466666666666667,11.8048267602275,19.1533884121147,6.94394585522886,-0.00380493652162706,1,15.1333333333333,29.9
0.5,11.8055870925761,19.3847889523034,6.94016517565077,-0.00378067957809058,1,15.1,29.9
0.533333333333333,11.8063895680965,19.6160636585901,6.93640338530991,-0.0037617903408611,1,15.0666666666667,29.9
0.566666666666667,11.8072327294759,19.8472130531097,6.93265411364547,-0.00374927166443761,1,15.0333333333333,29.9
0.6,11.8081157530357,20.0782374408699,6.92891091001005,-0.00374320363541347,1,15,29.9
0.633333333333333,11.8090384082659,20.3091369148237,6.92516765561021,-0.00374325439984968,1,14.9666666666667,29.9
0.666666666666667,11.810000955344,20.5399113693793,6.92141867650222,-0.00374897910798477,1,14.9333333333333,29.9
0.7,11.8110039956453,20.7705605153423,6.91765871557326,-0.00375996092896447,1,14.9,29.9
0.733333333333333,11.8120483011412,21.0010838928287,6.91388283417988,-0.0037758813933797,1,14.8666666666667,29.9
0.766666666666667,11.8131346518277,21.2314808803775,6.91008628033629,-0.00379655384358202,1,14.8333333333333,29.9
0.8,11.8142637061738,21.4617506993484,6.90626434023398,-0.0038219401023154,1,14.8,29.9
0.833333333333333,11.8154359201901,21.6918924130429,6.90241217775975,-0.00385216247422893,1,14.7666666666667,29.9
0.866666666666667,11.8166515192743,21.9219049373555,6.89852677987233,-0.0038853978874176,1,14.7333333333333,29.9
0.9,11.8179105170391,22.1517872307647,6.89461383150611,-0.00391294836622524,1,14.7,29.9
0.933333333333333,11.8192127666342,22.3815385026213,6.89068120442446,-0.00393262708164244,1,14.6666666666667,29.9
0.966666666666667,11.8205580263572,22.611158192226,6.88673471321276,-0.00394649121170598,1,14.6333333333333,29.9
1,11.821946023996,22.8406459040379,6.88277852596167,-0.00395618725109248,1,14.6,29.9
1.03333333333333,11.8233765079761,23.0700013607102,6.87881563102774,-0.00396289493392477,1,14.5666666666667,29.9
1.06666666666667,11.8248492787503,23.2992243694288,6.87484817115156,-0.00396745987618097,1,14.5333333333333,29.9
1.1,11.826364199544,23.528314797826,6.87087768265708,-0.00397048849447579,1,14.5,29.9
1.13333333333333,11.8279211900771,23.7572725567771,6.8669052667875,-0.00397241586958241,1,14.4666666666667,29.9
1.16666666666667,11.829520209519,23.986097588135,6.86293171254278,-0.00397355424471879,1,14.4333333333333,29.9
1.2,11.8311612355759,24.2147898559921,6.85895758484798,-0.00397412769480088,1,14.4,29.9
1.23333333333333,11.8328442455907,24.4433493404489,6.85498328790829,-0.00397429693969098,1,14.3666666666667,29.9
1.26666666666667,11.8345692034906,24.6717760331542,6.85100911076803,-0.00397417714026194,1,14.3333333333333,29.9
1.3,11.8363360540433,24.9000699340959,6.8470352600717,-0.00397385069633405,1,14.3,29.9
1.33333333333333,11.8381447237919,25.1282310492735,6.84306188359552,-0.00397337647617491,1,14.2666666666667,29.9
1.36666666666667,11.8399951266343,25.3562593890006,6.83908908710906,-0.0039727964864591,1,14.2333333333333,29.9
1.4,11.8418871714355,25.5841549666634,6.83511694641502,-0.00397214069404139,1,14.2,29.9
1.43333333333333,11.8438207692422,25.811917797815,6.8311455159121,-0.00397143050292481,1,14.1666666666667,29.9
1.46666666666667,11.8457958383751,26.0395478995247,6.82717483466514,-0.00397068124695288,1,14.1333333333333,29.9
1.5,11.8478123066163,26.267045289918,6.82320493070405,-0.00396990396109143,1,14.1,29.9
1.53333333333333,11.8498701106011,26.4944099878619,6.81923582407692,-0.00396910662713257,1,14.0666666666667,29.9
1.56666666666667,11.8519691931803,26.7216420127552,6.81526752903507,-0.00396829504184826,1,14.0333333333333,29.9
1.6,11.854109499832,26.9487413843926,6.81130005561528,-0.00396747341978898,1,14,29.9
1.63333333333333,11.8562909751877,27.1757081228756,6.80733341080092,-0.00396664481436027,1,13.9666666666667,29.9
1.66666666666667,11.8585135604708,27.4025422485513,6.80336759938316,-0.00396581141775965,1,13.9333333333333,29.9
1.7,11.8607771922536,27.6292437819651,6.79940262460182,-0.00396497478133728,1,13.9,29.9
1.73333333333333,11.863081802538,27.8558127438194,6.79543848861848,-0.00396413598334444,1,13.8666666666667,29.9
1.76666666666667,11.865427319856,28.0822491549358,6.79147519285847,-0.00396329576001087,1,13.8333333333333,29.9
1.8,11.867813670915,28.3085530362195,6.78751273824983,-0.00396245460863565,1,13.8,29.9
1.83333333333333,11.8702407822938,28.5347244086291,6.78355112538266,-0.00396161286717156,1,13.7666666666667,29.9
1.86666666666667,11.8727085817935,28.7607632931523,6.77959035460975,-0.00396077077291235,1,13.7333333333333,29.9
1.9,11.8752169992143,28.9866697107898,6.77563042610704,-0.00395992850270588,1,13.7,29.9
1.93333333333333,11.8777651470545,29.2124436908601,6.77167125618186,-0.00395916992518686,1,13.6666666666667,29.9
1.96666666666667,11.880347040386,29.4380853159071,6.7677125808059,-0.00395867537595684,1,13.6333333333333,29.9
2,11.8829471002891,29.6635947732206,6.76375422438864,-0.00395835641726006,1,13.6,29.9
2.03333333333333,11.8855412955786,29.8889723495199,6.7597962135264,-0.00395801086224257,1,13.5666666666667,29.9
2.06666666666667,11.888092847396,30.114218479292,6.75583888276182,-0.00395733076457638,1,13.5333333333333,29.9
2.1,11.8905483695728,30.3393337826219,6.75188349183319,-0.00395539092862762,1,13.5,29.9
2.13333333333333,11.892845527524,30.5643189625881,6.74793218411194,-0.00395130772125007,1,13.4666666666667,29.9
2.16666666666667,11.894925751005,30.7891746283487,6.74398685027537,-0.00394533383656981,1,13.4333333333333,29.9
2.2,11.8967413972079,31.0139011764877,6.74004803376253,-0.00393881651284111,1,13.4,29.9
2.23333333333333,11.8982615418873,31.2384987101245,6.73611431092179,-0.00393372284074189,1,13.3666666666667,29.9
2.26666666666667,11.8994746354819,31.4629670312477,6.7321827745402,-0.00393153638158772,1,13.3333333333333,29.9
2.3,11.9003879074919,31.6873057058702,6.72824954075257,-0.00393323378763633,1,13.3,29.9
2.33333333333333,11.9010287979385,31.9115141400711,6.72431114897059,-0.00393839178197908,1,13.2666666666667,29.9
2.36666666666667,11.901437638661,32.135591733612,6.72036624726317,-0.00394490170742046,1,13.2333333333333,29.9
2.4,11.9016602493933,32.359537992737,6.71641535157804,-0.00395089568512219,1,13.2,29.9
2.43333333333333,11.9017448348697,32.5833525669494,6.71245945667304,-0.00395589490500114,1,13.1666666666667,29.9
2.46666666666667,11.9017418582281,32.8070352402802,6.70850079889701,-0.00395865777603444,1,13.1333333333333,29.9
2.5,11.9016950693446,33.0305859424989,6.7045416782962,-0.00395912060080406,1,13.1,29.9
2.53333333333333,11.9016443411859,33.2540046875969,6.70058370008374,-0.00395797821246902,1,13.0666666666667,29.9
2.56666666666667,11.9016225769972,33.47729154514,6.69662837278196,-0.00395532730177717,1,13.0333333333333,29.9
2.6,11.9016521154146,33.7004466152651,6.69267662097386,-0.00395175180809382,1,13,29.9
2.63333333333333,11.9017444724175,33.9234700036913,6.68872843826645,-0.00394818270741304,1,12.9666666666667,29.9
2.66666666666667,11.9019041516571,34.1463618026554,6.68478348756167,-0.00394495070478396,1,12.9333333333333,29.9
2.7,11.9021260237523,34.3691220972837,6.68084125237359,-0.0039422351880809,1,12.9,29.9
2.73333333333333,11.9023979506928,34.591750964677,6.67690106644872,-0.00394018592486933,1,12.8666666666667,29.9
2.76666666666667,11.9027044296977,34.8142484740777,6.67296238674219,-0.00393867970652817,1,12.8333333333333,29.9
2.8,11.9030293220767,35.0366146880702,6.66902486995148,-0.00393751679070498,1,12.8,29.9
2.83333333333333,11.9033577244563,35.2588496630082,6.66508834191156,-0.00393652803992595,1,12.7666666666667,29.9
2.86666666666667,11.9036771009919,35.4809534487468,6.66115273267032,-0.0039356092412417,1,12.7333333333333,29.9
2.9,11.903978585119,35.7029260870721,6.6572179966172,-0.00393473605311279,1,12.7,29.9
2.93333333333333,11.9042588108416,35.9247676093177,6.65328410249908,-0.00393389411812528,1,12.6666666666667,29.9
2.96666666666667,11.9045165219043,36.1464780428877,6.64935104253366,-0.00393305996542281,1,12.6333333333333,29.9
3,11.9047515119263,36.3680574134204,6.64541880840644,-0.00393223412721522,1,12.6,29.9
3.03333333333333,11.9049644249913,36.5895057453953,6.64148739218866,-0.00393141621778348,1,12.5666666666667,29.9
3.06666666666667,11.9051565110157,36.8108230627105,6.63755678755456,-0.00393060463409345,1,12.5333333333333,29.9
3.1,11.9053293557892,37.0320093891782,6.6336269908815,-0.00392979667306737,1,12.5,29.9
3.13333333333333,11.9054846166442,37.2530647489,6.62969800179447,-0.00392898908703021,1,12.4666666666667,29.9
3.16666666666667,11.9056237968582,37.4739891665035,6.62576982292091,-0.00392817887355434,1,12.4333333333333,29.9
3.2,11.9057488880658,37.6947826664185,6.62184242620735,-0.00392739671356246,1,12.4,29.9
3.23333333333333,11.9058648860397,37.9154452706294,6.61791578144509,-0.00392664476225857,1,12.3666666666667,29.9
3.26666666666667,11.9059790319707,38.1359770002742,6.61398989976195,-0.00392588168314578,1,12.3333333333333,29.9
3.3,11.9061005268536,38.3563778762581,6.61006480535374,-0.00392509440820632,1,12.3,29.9
3.33333333333333,11.9062423089214,38.5766479175452,6.6061405727295,-0.00392423262424302,1,12.2666666666667,29.9
3.36666666666667,11.9064205490844,38.7967871406188,6.60221735182864,-0.0039232209008544,1,12.2333333333333,29.9
3.4,11.9066549564653,39.0167955565507,6.59829537316918,-0.00392197865945665,1,12.2,29.9
3.43333333333333,11.9069653225517,39.2366731692996,6.59437489341878,-0.00392047975040644,1,12.1666666666667,29.9
3.46666666666667,11.9073713807486,39.4564199702812,6.59045607273567,-0.00391882068311133,1,12.1333333333333,29.9
