Time,x_ego,y_ego,velocity,acceleration,action,x_ped,y_ped
0,11.8,15.9,5,0,1,15.5,29.9
0.0333333333333333,11.7999993820357,16.0666076888418,4.99642261466935,-0.00357738533064911,1,15.4972222222222,29.9
0.0666666666666667,11.7999954176174,16.2330926531086,4.9926475711652,-0.00377504350415148,1,15.4888888888889,29.9
0.1,11.7999857492211,16.3994492968689,4.98873131359086,-0.00391625757433989,1,15.475,29.9
0.133333333333333,11.799969018556,16.5656736242594,4.98471429628857,-0.0040170173022851,1,15.4555555555556,29.9
0.166666666666667,11.7999446938162,16.7317627862219,4.98062551192022,-0.00408878436835014,1,15.4305555555556,29.9
0.2,11.7999128576518,16.8977147556598,4.97648573855818,-0.00413977336204674,1,15.4,29.9
0.233333333333333,11.7998740001982,17.0635280946344,4.97230986758252,-0.00417587097565786,1,15.3666666666667,29.9
0.266666666666667,11.7998288436549,17.2292017875179,4.96810857203838,-0.00420129554413506,1,15.3333333333333,29.9
0.3,11.7997782086066,17.3947351214054,4.96388950202932,-0.00421907000906696,1,15.3,29.9
0.333333333333333,11.7997229203287,17.5601276003896,4.95965814118053,-0.00423136084878717,1,15.2666666666667,29.9
0.366666666666667,11.7996637468095,17.7253788841036,4.95541842033035,-0.00423972085017965,1,15.2333333333333,29.9
0.4,11.7996013586795,17.8904887436573,4.95117315732827,-0.00424526300208061,1,15.2,29.9
0.433333333333333,11.7995363031681,18.055457030045,4.94692437223381,-0.00424878509446458,1,15.1666666666667,29.9
0.466666666666667,11.7994689877138,18.220283651494,4.94267351320145,-0.00425085903235889,1,15.1333333333333,29.9
0.5,11.7993996722044,18.3849685572266,4.93842161833601,-0.00425189486543953,1,15.1,29.9
0.533333333333333,11.7993284708584,18.549511725821,4.93416943165925,-0.0042521866767542,1,15.0666666666667,29.9
0.566666666666667,11.7992553650453,18.7139131568714,4.92991748621195,-0.00425194544730623,1,15.0333333333333,29.9
0.6,11.7991802271267,18.8781728650149,4.92566616363677,-0.00425132257518168,1,15,29.9
0.633333333333333,11.7991028533654,19.0422908756554,4.92141573693542,-0.00425042670134701,1,14.9666666666667,29.9
0.666666666666667,11.7990230019408,19.2062672219045,4.91716640118237,-0.00424933575304554,1,14.9333333333333,29.9
0.7,11.7989404308496,19.3701019423944,4.91291829560585,-0.00424810557652577,1,14.9,29.9
0.733333333333333,11.7988549303642,19.5337950797142,4.90867151946846,-0.00424677613739011,1,14.8666666666667,29.9
0.766666666666667,11.798766345804,19.697346679292,4.90442614348487,-0.00424537598358654,1,14.8333333333333,29.9
0.8,11.7986745883346,19.8607567885931,4.90018221802025,-0.00424392546461672,1,14.8,29.9
0.833333333333333,11.7985796338256,20.0240254565441,4.89593977896153,-0.00424243905872146,1,14.7666666666667,29.9
0.866666666666667,11.7984815119176,20.1871527331171,4.89169885190304,-0.00424092705849155,1,14.7333333333333,29.9
0.9,11.7983802889063,20.3501386690275,4.88745945511095,-0.0042393967920864,1,14.7,29.9
0.933333333333333,11.7982760486062,20.5129833155147,4.88322160160701,-0.00423785350394823,1,14.6666666666667,29.9
0.966666666666667,11.7981688750011,20.6756867241815,4.87898530062495,-0.0042363009820523,1,14.6333333333333,29.9
1,11.79805883942,20.8382489468789,4.87475055862978,-0.0042347419951696,1,14.6,29.9
1.03333333333333,11.7979465969352,21.0006700359371,4.87051737095813,-0.00423318767165526,1,14.5666666666667,29.9
1.06666666666667,11.7978348485126,21.1629500449444,4.86628573855473,-0.00423163240340241,1,14.5333333333333,29.9
1.1,11.7977259577067,21.3250308960387,4.85856785205296,-0.00771788650177019,1,14.5,29.9
1.13333333333333,11.7976213831504,21.4867102827549,4.84219792270307,-0.0163699293498869,1,14.4666666666667,29.9
1.16666666666667,11.7975219621741,21.6474404164756,4.80161309793119,-0.0405848247718801,3,14.4333333333333,29.9
1.2,11.7974281234478,21.8063277323086,4.73162965138331,-0.069983446547881,3,14.4,29.9
1.23333333333333,11.797339845855,21.9625653194803,4.64263034019952,-0.0889993111837866,3,14.3666666666667,29.9
1.26666666666667,11.7972567257013,22.1156062459188,4.53983123815526,-0.102799102044265,3,14.3333333333333,29.9
1.3,11.7971781820123,22.2650189407571,4.42493825886981,-0.114892979285447,3,14.3,29.9
1.33333333333333,11.7971034953605,22.410573648938,4.30835465221894,-0.116583606650874,3,14.2666666666667,29.9
1.36666666666667,11.7970318520114,22.5522714564517,4.19352792053933,-0.114826731679602,3,14.2333333333333,29.9
1.4,11.7969624833897,22.6901709370438,4.08045983597562,-0.113068084563711,3,14.2,29.9
1.43333333333333,11.7968947469127,22.8243020119109,3.96742906805029,-0.113030767925336,3,14.1666666666667,29.9
1.46666666666667,11.796828154121,22.9546659326923,3.85443595329369,-0.112993114756602,3,14.1333333333333,29.9
1.5,11.7967623926679,23.0812352710283,3.73975839937352,-0.114677553920168,3,14.1,29.9
1.53333333333333,11.7966973542086,23.2039248489118,3.62165267861299,-0.118105720760523,3,14.0666666666667,29.9
1.56666666666667,11.7966331325322,23.3225917422166,3.4983972899428,-0.123255388670191,3,14.0333333333333,29.9
1.6,11.79656994277,23.4371508256174,3.37518155514142,-0.12321573480138,3,14,29.9
1.63333333333333,11.7965080714296,23.547603468549,3.25200629128579,-0.12317526385563,3,13.9666666666667,29.9
1.66666666666667,11.7964478764304,23.6539510529828,3.12887227075144,-0.12313402053435,3,13.9333333333333,29.9
1.7,11.7963897186303,23.7562240336054,3.00752410159266,-0.12134816915878,3,13.9,29.9
1.73333333333333,11.7963339266188,23.8544528634607,2.88621815293492,-0.121305948657747,3,13.8666666666667,29.9
1.76666666666667,11.7962807866344,23.9486098582217,2.7632106822482,-0.123007470686717,3,13.8333333333333,29.9
1.8,11.7962304842285,24.0386673321937,2.64024578358397,-0.122964898664228,3,13.8,29.9
1.83333333333333,11.7961830796604,24.1246266644587,2.51732324782683,-0.122922535757143,3,13.7666666666667,29.9
1.86666666666667,11.7961385325547,24.2064892303826,2.39444262775879,-0.122880620068043,3,13.7333333333333,29.9
1.9,11.7960967261604,24.2842564004333,2.27160332760637,-0.122839300152416,3,13.7,29.9
1.93333333333333,11.7960575018691,24.3579305297224,2.14893879941098,-0.122664528195386,3,13.6666666666667,29.9
1.96666666666667,11.7960206836079,24.4275322958622,2.02750211608192,-0.121436683329065,3,13.6333333333333,29.9
2,11.7959860915892,24.4931215442208,1.90827288384521,-0.119229232236705,3,13.6,29.9
2.03333333333333,11.7959535518972,24.554806336422,1.79324992855564,-0.115022955289574,3,13.5666666666667,29.9
2.06666666666667,11.7959229256108,24.6126983364404,1.68068822800167,-0.112561700553966,3,13.5333333333333,29.9
2.1,11.7958941253706,24.6668780038851,1.57049784202347,-0.110190385978202,3,13.5,29.9
2.13333333333333,11.7958670929768,24.7174235824341,1.46262905751433,-0.10786878450914,3,13.4666666666667,29.9
2.16666666666667,11.7958417911232,24.7644112787902,1.35701219544997,-0.105616862064363,3,13.4333333333333,29.9
2.2,11.7958181799846,24.807944051993,1.25532021059185,-0.101691984858117,3,13.4,29.9
2.23333333333333,11.7957962110698,24.8481514129808,1.15747144171292,-0.0978487688789333,3,13.3666666666667,29.9
2.26666666666667,11.7957758542642,24.8851315983018,1.06168470686466,-0.0957867348482544,3,13.3333333333333,29.9
2.3,11.7957570783731,24.9189828144388,0.969745969980324,-0.0919387368843404,3,13.3,29.9
2.33333333333333,11.7957398333024,24.9498341115984,0.881696778238961,-0.0880491917413635,3,13.2666666666667,29.9
2.36666666666667,11.7957240505777,24.97784416509,0.799249458920774,-0.0824473193181868,3,13.2333333333333,29.9
2.4,11.7957096147612,25.003254480868,0.725684063210169,-0.0735653957106051,3,13.2,29.9
2.43333333333333,11.7956963806321,25.0263586787886,0.660854947897154,-0.0648291153130149,3,13.1666666666667,29.9
2.46666666666667,11.7956842048677,25.0474451914781,0.604607530216969,-0.0562474176801847,3,13.1333333333333,29.9
2.5,11.795672992938,25.0667121594522,0.551668857063936,-0.0529386731530334,3,13.1,29.9
2.53333333333333,11.7956626830161,25.0842975040541,0.503697251528299,-0.0479716055356365,3,13.0666666666667,29.9
2.56666666666667,11.7956532146406,25.1003365326178,0.458878917619694,-0.0448183339086052,3,13.0333333333333,29.9
2.6,11.7956445447767,25.1149324108363,0.41709875097088,-0.0417801666488139,3,13,29.9
2.63333333333333,11.7956366321368,25.1281845219378,0.37824413871763,-0.0388546122532499,3,12.9666666666667,29.9
2.66666666666667,11.7956294526865,25.1401597767534,0.340484990214951,-0.0377591485026796,3,12.9333333333333,29.9
2.7,11.7956229991155,25.1508931472826,0.303734067661859,-0.036750922553092,3,12.9,29.9
2.73333333333333,11.7956172644916,25.1604170234216,0.267921142783626,-0.0358129248782326,3,12.8666666666667,29.9
2.76666666666667,11.7956122417729,25.1687617125285,0.23298878240719,-0.0349323603764365,3,12.8333333333333,29.9
2.8,11.7956079074848,25.175984922986,0.200640200847375,-0.0323485815598143,3,12.8,29.9
2.83333333333333,11.7956042368771,25.1821440647495,0.169157333434085,-0.0314828674132901,3,12.7666666666667,29.9
2.86666666666667,11.7956012190078,25.1872688090116,0.138578878631089,-0.0305784548029968,3,12.7333333333333,29.9
2.9,11.7955988253428,25.1914184675698,0.110643546552536,-0.0279353320785524,3,12.7,29.9
2.93333333333333,11.7955970260763,25.1946524988652,0.0836237868286858,-0.0270197597238504,3,12.6666666666667,29.9
2.96666666666667,11.7955958063401,25.1970012540023,0.0575051387510702,-0.0261186480776156,3,12.6333333333333,29.9
3,11.795595135068,25.1985231794777,0.0339883022720609,-0.0235168364790092,3,12.6,29.9
3.03333333333333,11.7955949811143,25.1992757704959,0.0113189258955527,-0.0226693763765083,3,12.5666666666667,29.9
3.06666666666667,11.7955952921284,25.1993547207586,0.000693981457508755,-0.0106249444380439,5,12.5333333333333,29.9
3.1,11.7955957542958,25.1993348085419,0.00075106090330068,5.70794457919248e-05,5,12.5,29.9
3.13333333333333,11.7955957542958,25.1993348085419,0.000944159411931311,0.000193098508630631,5,12.4666666666667,29.9
3.16666666666667,11.7955957542958,25.1993348085419,0.000937443724061289,-6.71568787002203e-06,5,12.4333333333333,29.9
3.2,11.7955957542958,25.1993348085419,0.000755849438390152,-0.000181594285671137,5,12.4,29.9
3.23333333333333,11.7955957542958,25.1993348085419,0.000438479545310162,-0.00031736989307999,5,12.3666666666667,29.9
3.26666666666667,11.7955957542958,25.1993348085419,3.27654288202714e-05,-0.000405714116489891,5,12.3333333333333,29.9
3.3,11.7955957542958,25.1993348085419,0.00041109521954947,0.000378329790729199,5,12.3,29.9
3.33333333333333,11.7955957542958,25.1993348085419,0.000845032411954166,0.000433937192404696,5,12.2666666666667,29.9
3.36666666666667,11.7955957542958,25.1993348085419,0.00122705470164391,0.000382022289689742,5,12.2333333333333,29.9
3.4,11.7955957542958,25.1993348085419,0.00152409849946646,0.000297043797822556,5,12.2,29.9
3.43333333333333,11.7955957542958,25.1993348085419,0.00171372648443998,0.000189627984973521,5,12.1666666666667,29.9
3.46666666666667,11.7955957542958,25.1993348085419,0.00178472038907358,7.09939046335904e-05,5,12.1333333333333,29.9
3.5,11.7955957542958,25.1993348085419,0.00173668939376491,-4.80309953086679e-05,5,12.1,29.9
3.53333333333333,11.7955957542958,25.1993348085419,0.00157887023807743,-0.000157819155687475,5,12.0666666666667,29.9
3.56666666666667,11.7955957542958,25.1993348085419,0.00132832845313887,-0.000250541784938565,5,12.0333333333333,29.9
3.6,11.7955957542958,25.1993348085419,0.00100778293825369,-0.000320545514885177,5,12,29.9
3.63333333333333,11.7955957542958,25.1993348085419,0.000643270803251152,-0.000364512135002538,5,11.9666666666667,29.9
3.66666666666667,11.7955957542958,25.1993348085419,0.000261849222288102,-0.00038142158096305,5,11.9333333333333,29.9
3.7,11.7955957542958,25.1993348085419,0.00011050023884971,-0.000151348983438392,5,11.9,29.9
3.73333333333333,11.7955957542958,25.1993348085419,0.000450637808966657,0.000340137570116948,5,11.8666666666667,29.9
3.76666666666667,11.7955957542958,25.1993348085419,0.000739616994076557,0.0002889791851099,5,11.8333333333333,29.9
3.8,11.7955957542958,25.1993348085419,0.000963577830220359,0.000223960836143802,5,11.8,29.9
3.83333333333333,11.7955957542958,25.1993348085419,0.00111417706013329,0.000150599229912929,5,11.7666666666667,29.9
3.86666666666667,11.7955957542958,25.1993348085419,0.00118858380866314,7.44067485298546e-05,5,11.7333333333333,29.9
3.9,11.7955957542958,25.1993348085419,0.00118909595573404,5.12147070895431e-07,5,11.7,29.9
3.93333333333333,11.7955957542958,25.1993348085419,0.00112245139637949,-6.66445593545529e-05,5,11.6666666666667,29.9
3.96666666666667,11.7955957542958,25.1993348085419,0.000998919549614286,-0.000123531846765199,5,11.6333333333333,29.9
4,11.7955957542958,25.1993348085419,0.000831262208719995,-0.000167657340894291,5,11.6,29.9
4.03333333333333,11.7955957542958,25.1993348085419,0.000633649942109699,-0.000197612266610295,5,11.5666666666667,29.9
4.06666666666667,11.7955957542958,25.1993348085419,0.000420611908805947,-0.000213038033303752,5,11.5333333333333,29.9
4.1,11.7955957542958,25.1993348085419,0.000206084496174703,-0.000214527412631245,5,11.5,29.9
4.13333333333333,11.7955957542958,25.1993348085419,2.60904753890412e-06,-0.000203475448635799,5,11.4666666666667,29.9
4.16666666666667,11.7955957542958,25.1993348085419,0.000179287478853853,0.000176678431314949,5,11.4333333333333,29.9
4.2,11.7955957542958,25.1993348085419,0.000331511511726868,0.000152224032873015,5,11.4,29.9
4.23333333333333,11.7955957542958,25.1993348085419,0.000448619470576479,0.000117107958849611,5,11.3666666666667,29.9
4.26666666666667,11.7955957542958,25.1993348085419,0.000527843314804651,7.92238442281718e-05,5,11.3333333333333,29.9
4.3,11.7955957542958,25.1993348085419,0.000568947229385684,4.1103914581033e-05,5,11.3,29.9
4.33333333333333,11.7955957542958,25.1993348085419,0.000573945579181954,4.9983497962706e-06,5,11.2666666666667,29.9
4.36666666666667,11.7955957542958,25.1993348085419,0.000546717186956735,-2.7228392225219e-05,5,11.2333333333333,29.9
4.4,11.7955957542958,25.1993348085419,0.00049255299682522,-5.41641901315158e-05,5,11.2,29.9
4.43333333333333,11.7955957542958,25.1993348085419,0.000417673551962867,-7.48794448623522e-05,5,11.1666666666667,29.9
4.46666666666667,11.7955957542958,25.1993348085419,0.000328749850707401,-8.89237012554666e-05,5,11.1333333333333,29.9
4.5,11.7955957542958,25.1993348085419,0.000232456542184919,-9.62933085224817e-05,5,11.1,29.9
4.53333333333333,11.7955957542958,25.1993348085419,0.000135080615913951,-9.7375926270968e-05,5,11.0666666666667,29.9
4.56666666666667,11.7955957542958,25.1993348085419,4.22022649461454e-05,-9.28783509678056e-05,5,11.0333333333333,29.9
4.6,11.7955957542958,25.1993348085419,4.15420392090236e-05,-6.60225737121809e-07,5,11,29.9
4.63333333333333,11.7955957542958,25.1993348085419,0.000112610588373981,7.10685491649579e-05,5,10.9666666666667,29.9
4.66666666666667,11.7955957542958,25.1993348085419,0.000168623655970389,5.60130675964077e-05,5,10.9333333333333,29.9
4.7,11.7955957542958,25.1993348085419,0.000208353777744916,3.97301217745264e-05,5,10.9,29.9
4.73333333333333,11.7955957542958,25.1993348085419,0.000231649727688544,2.32959499436283e-05,5,10.8666666666667,29.9
4.76666666666667,11.7955957542958,25.1993348085419,0.000239307407109294,7.65767942075026e-06,5,10.8333333333333,29.9
4.8,11.7955957542958,25.1993348085419,0.000232902290568599,-6.40511654069476e-06,5,10.8,29.9
4.83333333333333,11.7955957542958,25.1993348085419,0.000214598412521975,-1.8303878046624e-05,5,10.7666666666667,29.9
4.86666666666667,11.7955957542958,25.1993348085419,0.00018694826364803,-2.76501488739459e-05,5,10.7333333333333,29.9
4.9,11.7955957542958,25.1993348085419,0.000152696567049517,-3.42516965985128e-05,5,10.7,29.9
4.93333333333333,11.7955957542958,25.1993348085419,0.000114598916736191,-3.80976503133256e-05,5,10.6666666666667,29.9
4.96666666666667,11.7955957542958,25.1993348085419,7.52638874016872e-05,-3.93350293345039e-05,5,10.6333333333333,29.9
5,11.7955957542958,25.1993348085419,3.70246634385472e-05,-3.823922396314e-05,5,10.6,29.9
5.03333333333333,11.7955957542958,25.1993348085419,1.843667541117e-06,-3.51809958974302e-05,5,10.5666666666667,29.9
5.06666666666667,11.7955957542958,25.1993348085419,2.87487492277114e-05,2.69050816865944e-05,5,10.5333333333333,29.9
5.1,11.7955957542958,25.1993348085419,5.36826390666517e-05,2.49338898389403e-05,5,10.5,29.9
5.13333333333333,11.7955957542958,25.1993348085419,7.2346675580624e-05,1.86640365139723e-05,5,10.4666666666667,29.9
5.16666666666667,11.7955957542958,25.1993348085419,8.45604864466363e-05,1.22138108660123e-05,5,10.4333333333333,29.9
5.2,11.7955957542958,25.1993348085419,9.05262513711924e-05,5.96576492455618e-06,5,10.4,29.9
5.23333333333333,11.7955957542958,25.1993348085419,9.07652061209442e-05,2.38954749751772e-07,5,10.3666666666667,29.9
5.26666666666667,11.7955957542958,25.1993348085419,8.60447831858764e-05,-4.72042293506778e-06,5,10.3333333333333,29.9
5.3,11.7955957542958,25.1993348085419,7.73018609478502e-05,-8.74292223802621e-06,5,10.3,29.9
5.33333333333333,11.7955957542958,25.1993348085419,6.55670511646711e-05,-1.17348097831791e-05,5,10.2666666666667,29.9
5.36666666666667,11.7955957542958,25.1993348085419,5.1894201684911e-05,-1.367284947976e-05,5,10.2333333333333,29.9
5.4,11.7955957542958,25.1993348085419,0.00013591083153565,8.40166298507393e-05,5,10.2,29.9
5.43333333333333,11.7955955127991,25.1997781117694,0.0234469900984728,0.0233110792669371,4,10.1666666666667,29.9
5.46666666666667,11.7955947002614,25.2012696457308,0.0659887887109019,0.0425417986124291,4,10.1333333333333,29.9
5.5,11.7955930408865,25.204315675295,0.116667585557087,0.0506787968461852,4,10.1,29.9
5.53333333333333,11.7955904684757,25.2090377184427,0.166513113638456,0.0498455280813692,4,10.0666666666667,29.9
5.56666666666667,11.7955870002597,25.2154041452103,0.215309818635615,0.0487967049971591,4,10.0333333333333,29.9
5.6,11.7955826566544,25.2233774793687,0.262925626840659,0.047615808205044,4,10,29.9
5.63333333333333,11.7955774591744,25.2329182278047,0.309373866104328,0.0464482392636684,4,9.96666666666667,29.9
5.66666666666667,11.795571428451,25.2439885184487,0.354712520142438,0.0453386540381098,4,9.93333333333333,29.9
5.7,11.7955645841631,25.2565522279474,0.398987794558604,0.0442752744161666,4,9.9,29.9
5.73333333333333,11.7955569452265,25.270574633438,0.442237528255906,0.0432497336973015,4,9.86666666666667,29.9
5.76666666666667,11.7955485299426,25.2860221399495,0.484490358992813,0.0422528307369072,4,9.83333333333334,29.9
5.8,11.7955393563374,25.3028616581619,0.525747869342216,0.0412575103494027,4,9.8,29.9
5.83333333333333,11.7955294425122,25.3210599603031,0.566007484317533,0.0402596149753179,4,9.76666666666667,29.9
5.86666666666667,11.795518806556,25.3405838414697,0.605274438718689,0.0392669544011557,4,9.73333333333333,29.9
5.9,11.7955074664235,25.3614003430472,0.643559349569652,0.0382849108509625,4,9.7,29.9
5.93333333333333,11.7954954398493,25.3834769106233,0.680876465666878,0.0373171160972259,4,9.66666666666667,29.9
5.96666666666667,11.7954827442172,25.4067816335306,0.717255979907373,0.0363795142404958,4,9.63333333333333,29.9
6,11.7954693958872,25.4312844805547,0.752796503226156,0.0355405233187822,4,9.6,29.9
6.03333333333333,11.7954554062569,25.4569645298494,0.788054030075299,0.0352575268491438,4,9.56666666666667,29.9
6.06666666666667,11.7954407696776,25.4838321503871,0.824314018469411,0.0362599883941119,4,9.53333333333333,29.9
6.1,11.7954254528551,25.5119484585647,0.863271919204813,0.0389579007354017,4,9.5,29.9
6.13333333333333,11.795409391539,25.5414313955732,0.90655614888291,0.0432842296780965,4,9.46666666666667,29.9
6.16666666666667,11.7953924952597,25.5724470318331,0.955408874160305,0.0488527252773951,4,9.43333333333333,29.9
6.2,11.7953746542598,25.6051968435313,1.01073083481303,0.0553219606527274,4,9.4,29.9
6.23333333333333,11.7953557450906,25.6399074389303,1.07312958892595,0.0623987541129196,4,9.36666666666667,29.9
6.26666666666667,11.7953356361449,25.6768204026535,1.14288393561817,0.0697543466922204,4,9.33333333333333,29.9
