Time,x_ego,y_ego,velocity,acceleration,action,x_ped,y_ped
0,11.8,15.9,7,0,1,15.5,29.9
0.0333333333333333,11.8,16.1332703793943,6.99615577953002,-0.00384422046998356,1,15.4502170138889,29.9
0.0666666666666667,11.8,16.3664065988113,6.99196947109348,-0.00418630843653833,1,15.4008680555556,29.9
0.1,11.8,16.5994007552791,6.98769498718995,-0.00427448390352669,1,15.351953125,29.9
0.133333333333333,11.8,16.8322537852842,6.9834976545359,-0.00419733265404787,1,15.3034722222222,29.9
0.166666666666667,11.8,17.0649678802301,6.97935585456763,-0.00414179996826913,1,15.2554253472222,29.9
0.2,11.800005810312,17.2975446186507,6.97525411165112,-0.00410174291651888,1,15.2078125,29.9
0.233333333333333,11.8000421744285,17.5299851394549,6.9711814582052,-0.00407265344591856,1,15.1606336805556,29.9
0.266666666666667,11.8001287930188,17.7622902642965,6.96713006529516,-0.00405139291003298,1,15.1138888888889,29.9
0.3,11.8002750948691,17.9944605845511,6.96309415769023,-0.00403590760493699,1,15.067578125,29.9
0.333333333333333,11.8004812489906,18.2264965258957,6.95906946059721,-0.0040246970930129,1,15.0217013888889,29.9
0.366666666666667,11.800743990061,18.4583983965385,6.95505292223798,-0.00401653835923543,1,14.9762586805556,29.9
0.4,11.8010591712776,18.6901664223186,6.95104239342176,-0.00401052881621933,1,14.93125,29.9
0.433333333333333,11.8014226664829,18.9218007716719,6.94703637634244,-0.00400601707931703,1,14.8866753472222,29.9
0.466666666666667,11.8018307477724,19.1533015729949,6.94303382656825,-0.00400254977419578,1,14.8425347222222,29.9
0.5,11.8022801474619,19.3846689265935,6.93903400873813,-0.00399981783011505,1,14.798828125,29.9
0.533333333333333,11.8027679899895,19.6159029128987,6.93503639813648,-0.00399761060164661,1,14.7555555555556,29.9
0.566666666666667,11.8032916482999,19.8469454669902,6.9275528168423,-0.0074835812941858,1,14.7127170138889,29.9
0.6,11.8038484621426,20.0775078155307,6.90622905012302,-0.0213237667192834,3,14.6703125,29.9
0.633333333333333,11.8044357641844,20.3071290100944,6.87108861873206,-0.0351404313909605,3,14.6283420138889,29.9
0.666666666666667,11.8050510794134,20.535319099925,6.82036788345202,-0.0507207352800361,3,14.5868055555556,29.9
0.7,11.8056918873389,20.7614149079525,6.74543706730104,-0.0749308161509745,3,14.545703125,29.9
0.733333333333333,11.8063557141591,20.9846672606541,6.64976604712041,-0.095671020180637,3,14.5050347222222,29.9
0.766666666666667,11.8070404856801,21.2044713445569,6.53854668012281,-0.1112193669976,3,14.4648003472222,29.9
0.8,11.8077445291895,21.4203953951401,6.41697028930674,-0.121576390816062,3,14.425,29.9
0.833333333333333,11.8084665073002,21.6321806756094,6.29022746810966,-0.126742821197089,3,14.3856336805556,29.9
0.866666666666667,11.8092052123069,21.8396836840072,6.16004190630855,-0.130185561801104,3,14.3467013888889,29.9
0.9,11.8099593616544,22.0428187301629,6.02815851857189,-0.131883387736664,3,14.308203125,29.9
0.933333333333333,11.8107274767934,22.2415288562347,5.89455595456103,-0.133602564010854,3,14.2701388888889,29.9
0.966666666666667,11.8115077117767,22.4357280600589,5.75751227557015,-0.137043678990885,3,14.2325086805556,29.9
1,11.8122978725212,22.6253020207713,5.61704950807433,-0.140462767495819,3,14.1953125,29.9
1.03333333333333,11.8130953669638,22.8100786687602,5.46968006856572,-0.147369439508612,3,14.1585503472222,29.9
1.06666666666667,11.8138973554536,22.9898568937679,5.31714859523458,-0.152531473331133,3,14.1222222222222,29.9
1.1,11.8147012049149,23.1645224439694,5.16292182074303,-0.154226774491558,3,14.086328125,29.9
1.13333333333333,11.8155045868086,23.3340475519921,5.00872230236752,-0.154199518375504,3,14.0508680555556,29.9
1.16666666666667,11.8163053541679,23.4984331563108,4.85455032238381,-0.154171979983714,3,14.0158420138889,29.9
1.2,11.8171012578307,23.6576224253325,4.69694008383219,-0.157610238551616,3,13.98125,29.9
1.23333333333333,11.8178898195577,23.8114720593354,4.53416997128674,-0.162770112545449,3,13.9470920138889,29.9
1.26666666666667,11.8186685020393,23.9598090779652,4.36615446985372,-0.168015501433025,3,13.9133680555556,29.9
1.3,11.8194348851737,24.1024859576095,4.19456967574361,-0.171584794110109,3,13.9133680555556,29.9
1.33333333333333,11.8201867751657,24.2394135974244,4.02120636336109,-0.173363312382523,3,13.9133680555556,29.9
1.36666666666667,11.8209222036475,24.3705619935557,3.84782006297227,-0.173386300388814,3,13.9133680555556,29.9
1.4,11.8216394395488,24.4959594951037,3.6761565342831,-0.171663528689173,3,13.9133680555556,29.9
1.43333333333333,11.8223366317931,24.6156064188881,3.50278803784994,-0.173368496433159,3,13.9133680555556,29.9
1.46666666666667,11.8230118292533,24.7294748579308,3.32944867352657,-0.173339364323372,3,13.9133680555556,29.9
1.5,11.8236632624763,24.8375659486339,3.15614684724413,-0.173301826282438,3,13.9133680555556,29.9
1.53333333333333,11.8242891063315,24.9398523642468,2.98116636506744,-0.174980482176693,3,13.9133680555556,29.9
1.56666666666667,11.824887633351,25.0363069490374,2.8062337593124,-0.174932605755036,3,13.9133680555556,29.9
1.6,11.8254575046696,25.1269600718429,2.63307420570083,-0.173159553611568,3,13.9133680555556,29.9
1.63333333333333,11.8259975040545,25.2118421782199,2.45996746321239,-0.173106742488442,3,13.9133680555556,29.9
1.66666666666667,11.826506400077,25.2909550598507,2.28691483640941,-0.173052626802984,3,13.9133680555556,29.9
1.7,11.8269831186992,25.3643016628215,2.11408456971739,-0.172830266692013,3,13.9133680555556,29.9
1.73333333333333,11.8274268638742,25.4319096646701,1.94289097890394,-0.171193590813451,3,13.9133680555556,29.9
1.76666666666667,11.8278372206181,25.4938555749272,1.77443651060216,-0.168454468301788,3,13.9133680555556,29.9
1.8,11.8282139926782,25.5502362294936,1.6089830796026,-0.165453430999551,3,13.9133680555556,29.9
1.83333333333333,11.8285571059427,25.601152788349,1.44659497246733,-0.162388107135279,3,13.9133680555556,29.9
1.86666666666667,11.8288665833141,25.6467080285837,1.28730026853899,-0.159294703928335,3,13.9133680555556,29.9
1.9,11.8291423750814,25.6869764130146,1.12937284033006,-0.15792742820893,3,13.9133680555556,29.9
1.93333333333333,11.8293846560427,25.7220609131226,0.976279360451736,-0.153093479878323,3,13.9133680555556,29.9
1.96666666666667,11.8295938403027,25.7520966107905,0.826463327502465,-0.149816032949271,3,13.9133680555556,29.9
2,11.82977026928,25.7771935783452,0.679926479556649,-0.146536847945817,3,13.9133680555556,29.9
2.03333333333333,11.829914325732,25.7974590891608,0.536566524789253,-0.143359954767396,3,13.9133680555556,29.9
2.06666666666667,11.8300264389101,25.8129996656249,0.396435616319033,-0.14013090847022,3,13.9133680555556,29.9
2.1,11.8301074083643,25.8239809767552,0.262992245464373,-0.133443370854661,3,13.9133680555556,29.9
2.13333333333333,11.8301580600938,25.8305663521572,0.132681107083889,-0.130311138380483,3,13.9133680555556,29.9
2.16666666666667,11.8301789358943,25.8328618254561,0.00610569030285435,-0.126575416781035,3,13.9133680555556,29.9
2.2,11.8301800288293,25.8326793838851,0.00624128211380632,0.000135591810951971,5,13.9133680555556,29.9
2.23333333333333,11.8301750514999,25.8324969758572,0.00405626782635381,-0.00218501428745251,5,13.9133680555556,29.9
2.26666666666667,11.8301750514999,25.8324969758572,0.00548705965838279,0.00143079183202898,5,13.9133680555556,29.9
2.3,11.8301750514999,25.8324969758572,0.00718724138012689,0.0017001817217441,5,13.9133680555556,29.9
2.33333333333333,11.8301750514999,25.8324969758572,0.00900159693898888,0.00181435555886199,5,13.9133680555556,29.9
2.36666666666667,11.8301750514999,25.8324969758572,0.0107505428098855,0.00174894587089659,5,13.9133680555556,29.9
2.4,11.8301750514999,25.8324969758572,0.0122542573388851,0.00150371452899962,5,13.9133680555556,29.9
2.43333333333333,11.8301750514999,25.8324969758572,0.0133532591022725,0.00109900176338739,5,13.9133680555556,29.9
2.46666666666667,11.8301750514999,25.8324969758572,0.0139241887043898,0.0005709296021173,5,13.9133680555556,29.9
2.5,11.8301750514999,25.8324969758572,0.0138901437717418,-3.40449326479871e-05,5,13.9133680555556,29.9
2.53333333333333,11.8301750514999,25.8324969758572,0.0132254645292865,-0.000664679242455252,5,13.9133680555556,29.9
2.56666666666667,11.8301750514999,25.8324969758572,0.0119553341640125,-0.001270130365274,5,13.9133680555556,29.9
2.6,11.8301750514999,25.8324969758572,0.0101509224874898,-0.00180441167652272,5,13.9133680555556,29.9
2.63333333333333,11.8301750514999,25.8324969758572,0.0079210525439606,-0.00222986994352922,5,13.9133680555556,29.9
2.66666666666667,11.8301750514999,25.8324969758572,0.00540150708889611,-0.00251954545506449,5,13.9133680555556,29.9
2.7,11.8301750514999,25.8324969758572,0.00274312298367951,-0.0026583841052166,5,13.9133680555556,29.9
2.73333333333333,11.8301750514999,25.8324969758572,9.97606829803476e-05,-0.00264336230069916,5,13.9133680555556,29.9
2.76666666666667,11.8301750514999,25.8324969758572,0.0023828982839757,0.00228313760099535,5,13.9133680555556,29.9
2.8,11.8301750514999,25.8324969758572,0.00457695964641299,0.00219406136243729,5,13.9133680555556,29.9
2.83333333333333,11.8301750514999,25.8324969758572,0.00637978199542719,0.0018028223490142,5,13.9133680555556,29.9
2.86666666666667,11.8301750514999,25.8324969758572,0.00771897928376508,0.00133919728833789,5,13.9133680555556,29.9
2.9,11.8301750514999,25.8324969758572,0.00855486047214439,0.000835881188379306,5,13.9133680555556,29.9
2.93333333333333,11.8301750514999,25.8324969758572,0.00878180407649625,0.000226943604351867,5,13.9133680555556,29.9
2.96666666666667,11.830177107762,25.8328692269721,0.020494870813074,0.0117130667365778,5,13.9133680555556,29.9
3,11.8301830462169,25.8339442743807,0.0463479446211837,0.0258530738081097,4,13.9133680555556,29.9
3.03333333333333,11.8301952099499,25.8361456071879,0.0864609774706823,0.0401130328494986,4,13.9133680555556,29.9
3.06666666666667,11.830215749832,25.8398604082887,0.136579510228788,0.0501185327581058,4,13.9133680555556,29.9
3.1,11.8302455107411,25.8452363045484,0.18589183531873,0.0493123250899424,4,13.9133680555556,29.9
3.13333333333333,11.8302843647347,25.8522399632346,0.234153302523565,0.048261467204835,4,13.9133680555556,29.9
3.16666666666667,11.8303321907652,25.860833147374,0.281259806235761,0.0471065037121954,4,13.9133680555556,29.9
3.2,11.830388905538,25.8709773222629,0.327246708981931,0.0459869027461702,4,13.9133680555556,29.9
3.23333333333333,11.8304544783565,25.882635726463,0.372156101021913,0.0449093920399822,4,13.9133680555556,29.9
3.26666666666667,11.8305289307601,25.8957730948243,0.416022957050508,0.0438668560285945,4,13.9133680555556,29.9
3.3,11.8306123337137,25.9103553803286,0.458877732406359,0.0428547753558515,4,13.9133680555556,29.9
3.33333333333333,11.8307048021185,25.926349455229,0.500737332218121,0.0418595998117613,4,13.9133680555556,29.9
3.36666666666667,11.8308064839163,25.9437222998351,0.541596545671846,0.0408592134537252,4,13.9133680555556,29.9
3.4,11.8309175497611,25.9624407398569,0.581456855400064,0.0398603097282181,4,13.9133680555556,29.9
3.43333333333333,11.8310381833644,25.9824716996023,0.6203272166934,0.0388703612933357,4,13.9133680555556,29.9
3.46666666666667,11.8311685698326,26.0037824025876,0.658221380457527,0.0378941637641278,4,13.9133680555556,29.9
3.5,11.8313088826035,26.0263405197147,0.695157435917195,0.0369360554596674,4,13.9133680555556,29.9
3.53333333333333,11.8314592718754,26.0501146573667,0.73118158948899,0.0360241535717956,4,13.9133680555556,29.9
3.56666666666667,11.8316198565089,26.0750753926602,0.766358354931383,0.0351767654423931,4,13.9133680555556,29.9
3.6,11.8317907131355,26.1011955744854,0.800785264347253,0.034426909415869,4,13.9133680555556,29.9
3.63333333333333,11.8319719049856,26.1284573375935,0.835017131592129,0.0342318672448767,4,13.9133680555556,29.9
3.66666666666667,11.832163598528,26.1568741136834,0.870372983949076,0.0353558523569466,4,13.9133680555556,29.9
3.7,11.8323661892753,26.1865131380693,0.908667787670225,0.0382948037211489,4,13.9133680555556,29.9
3.73333333333333,11.8325803425109,26.2175014707272,0.951592463443846,0.0429246757736209,4,13.9133680555556,29.9
3.76666666666667,11.8328069542906,26.2500166396897,1.00047285047236,0.0488803870285103,4,13.9133680555556,29.9
3.8,11.8330471038256,26.2842747451777,1.05631482160528,0.0558419711329214,4,13.9133680555556,29.9
3.83333333333333,11.8333020237517,26.3205208099685,1.11984243553084,0.0635276139255612,4,13.9133680555556,29.9
3.86666666666667,11.8335730687125,26.3590180217698,1.19140797674455,0.0715655412137113,4,13.9133680555556,29.9
3.9,11.8338616797779,26.4000356090761,1.27105091936343,0.0796429426188823,4,13.9133680555556,29.9
3.93333333333333,11.8341693718187,26.4438403213554,1.3585838408895,0.0875329215260721,4,13.9133680555556,29.9
3.96666666666667,11.8344977235642,26.4906883459923,1.45355103523628,0.094967194346778,4,13.9133680555556,29.9
4,11.8348483563992,26.5408158222113,1.55522115918263,0.101670123946344,4,13.9133680555556,29.9
4.03333333333333,11.8352229218837,26.5944320932614,1.66274145783875,0.107520298656124,4,13.9133680555556,29.9
4.06666666666667,11.8356231033621,26.6517173208931,1.77522086633571,0.112479408496958,4,13.9133680555556,29.9
4.1,11.8360506128493,26.7128218869801,1.89176532603342,0.116544459697714,4,13.9133680555556,29.9
4.13333333333333,11.836507167307,26.7778653735841,2.01138522759263,0.119619901559203,4,13.9133680555556,29.9
4.16666666666667,11.8369944252567,26.8469321555149,2.13300724210248,0.121622014509857,4,13.9133680555556,29.9
4.2,11.8375139424527,26.920073168382,2.25570742527136,0.122700183168878,4,13.9133680555556,29.9
4.23333333333333,11.8380671351258,26.997311047746,2.37870902723689,0.123001601965531,4,13.9133680555556,29.9
4.26666666666667,11.8386552359136,27.0786448501248,2.50137340299364,0.122664375756746,4,13.9133680555556,29.9
4.3,11.8392792530127,27.1640552538089,2.62326173180408,0.12188832881044,4,13.9133680555556,29.9
4.33333333333333,11.8399399230991,27.2535124771615,2.74415604058585,0.120894308781769,4,13.9133680555556,29.9
4.36666666666667,11.8406376873663,27.346980593224,2.86389611221012,0.11974007162427,4,13.9133680555556,29.9
4.4,11.8413727339999,27.4444190003968,2.9823609081557,0.118464795945578,4,13.9133680555556,29.9
4.43333333333333,11.8421450675923,27.5457834569141,3.09944772073866,0.117086812582962,4,13.9133680555556,29.9
4.46666666666667,11.8429545832732,27.6510260430812,3.21502796312474,0.115580242386078,4,13.9133680555556,29.9
4.5,11.8438011281701,27.7600934384277,3.32891995149316,0.11389198836842,4,13.9133680555556,29.9
4.53333333333333,11.8446845646653,27.872927335212,3.44101884233899,0.112098890845838,4,13.9133680555556,29.9
4.56666666666667,11.8456048315957,27.9894672590072,3.55129232427017,0.110273481931177,4,13.9133680555556,29.9
4.6,11.8465619797138,28.1096524613801,3.6597532395779,0.108460915307734,4,13.9133680555556,29.9
4.63333333333333,11.847556184593,28.2334231635995,3.76644329004969,0.106690050471784,4,13.9133680555556,29.9
4.66666666666667,11.8485872643785,28.360721093677,3.87139882334543,0.104955533295743,4,13.9133680555556,29.9
4.7,11.8496534266083,28.4914876999295,3.97456275201338,0.103163928667952,4,13.9133680555556,29.9
4.73333333333333,11.8507525746673,28.6256626068601,4.07590900506494,0.101346253051559,4,13.9133680555556,29.9
4.76666666666667,11.8518815972143,28.7631858515613,4.17548152334468,0.0995725182797429,4,13.9133680555556,29.9
4.8,11.8530382542963,28.9039995991733,4.27336006493166,0.0978785415869732,4,13.9133680555556,29.9
4.83333333333333,11.8542216300621,29.0480489420929,4.36963850749224,0.0962784425605809,4,13.9133680555556,29.9
4.86666666666667,11.8554313763812,29.1952820678137,4.46440447395331,0.0947659664610683,4,13.9133680555556,29.9
4.9,11.8566661062493,29.3456495634031,4.55771125477201,0.0933067808187031,4,13.9133680555556,29.9
4.93333333333333,11.8579251284746,29.4991032322908,4.64958122552182,0.0918699707498121,4,13.9133680555556,29.9
4.96666666666667,11.8592087611762,29.6555950443482,4.73999055367518,0.0904093281533589,4,13.9133680555556,29.9
5,11.8605179977132,29.8150731505851,4.82871592899467,0.0887253753194841,4,13.9133680555556,29.9
5.03333333333333,11.8618541800614,29.9774785536683,4.91563925201591,0.0869233230212485,4,13.9133680555556,29.9
5.06666666666667,11.8632187785312,30.1427505007408,5.00068388786466,0.0850446358487433,4,13.9133680555556,29.9
5.1,11.8646131556729,30.3108222134312,5.08356902942339,0.0828851415587302,4,13.9133680555556,29.9
5.13333333333333,11.86603836847,30.4816134810726,5.16376642335301,0.0801973939296197,4,13.9133680555556,29.9
5.16666666666667,11.8674943895068,30.6550233790098,5.24047981636441,0.0767133930114037,4,13.9133680555556,29.9
5.2,11.8689783008545,30.8309026164987,5.31142520872963,0.0709453923652168,4,13.9133680555556,29.9
5.23333333333333,11.8704864733935,31.009006491685,5.37336573612179,0.0619405273921618,4,13.9133680555556,29.9
5.26666666666667,11.8720150200732,31.1889691080558,5.42241069540884,0.0490449592870554,4,13.9133680555556,29.9
5.3,11.8735598575957,31.3703312540498,5.45757160475676,0.0351609093479111,4,13.9133680555556,29.9
5.33333333333333,11.875117588752,31.5526725586944,5.48176816715184,0.0241965623950877,4,13.9133680555556,29.9
5.36666666666667,11.8766859179305,31.7356820506768,5.49810170767844,0.0163335405265954,1,13.9133680555556,29.9
5.4,11.8782633639109,31.9191367031282,5.50879342069024,0.0106917130118038,1,13.9133680555556,29.9
5.43333333333333,11.8798489871645,32.1028764385811,5.51543424620304,0.00664082551279943,1,13.9133680555556,29.9
5.46666666666667,11.8814422108961,32.2867862642287,5.51916344735797,0.00372920115492636,1,13.9133680555556,29.9
5.5,11.883042705244,32.4707834694584,5.52079657164049,0.00163312428252382,1,13.9133680555556,29.9
5.53333333333333,11.8846503089894,32.6548084505074,5.52091714829081,0.000120576650314952,1,13.9133680555556,29.9
5.56666666666667,11.8862649704967,32.8388181337967,5.51994240114868,-0.000974747142126198,1,13.9133680555556,29.9
5.6,11.8878866977955,33.0227812608824,5.51817033273035,-0.00177206841832867,1,13.9133680555556,29.9
5.63333333333333,11.8895155147617,33.2066750066163,5.51581344565157,-0.00235688707878356,1,13.9133680555556,29.9
5.66666666666667,11.8911514249859,33.3904825519511,5.51302288649448,-0.00279055915708781,1,13.9133680555556,29.9
5.7,11.8927943866961,33.5741913401554,5.50990570911688,-0.00311717737760109,1,13.9133680555556,29.9
5.73333333333333,11.8944443014082,33.7577918216926,5.50653719226513,-0.00336851685175343,1,13.9133680555556,29.9
5.76666666666667,11.8961010167184,33.9412765480441,5.50296961126286,-0.00356758100226262,1,13.9133680555556,29.9
5.8,11.8977643409285,34.124639514219,5.49923846447961,-0.00373114678324882,1,13.9133680555556,29.9
5.83333333333333,11.8994340649906,34.3078756777273,5.49536687004101,-0.00387159443860874,1,13.9133680555556,29.9
5.86666666666667,11.9011099862029,34.4909806017826,5.49136864306489,-0.00399822697611629,1,13.9133680555556,29.9
5.9,11.9027919284351,34.6739501904618,5.48725179820501,-0.00411684485988228,1,13.9133680555556,29.9
5.93333333333333,11.904479757725,34.8567807894445,5.48303831292972,-0.00421348527529197,1,13.9133680555556,29.9
5.96666666666667,11.9061733917416,35.0394696511922,5.4787556911643,-0.00428262176541061,1,13.9133680555556,29.9
6,11.9078721558565,35.2220148263822,5.47442390489532,-0.00433178626898378,1,13.9133680555556,29.9
6.03333333333333,11.9095732516381,35.4044149547656,5.47005726091311,-0.00436664398221609,1,13.9133680555556,29.9
6.06666666666667,11.9112736237393,35.5866690872216,5.46566602355,-0.00439123736310876,1,13.9133680555556,29.9
6.1,11.9129682073239,35.7687765859427,5.46125757260176,-0.00440845094823761,1,13.9133680555556,29.9
6.13333333333333,11.9146503241907,35.9507370379825,5.45683725627512,-0.00442031632663564,1,13.9133680555556,29.9
6.16666666666667,11.9163126438382,36.1325501867897,5.45240896559245,-0.00442829068267248,1,13.9133680555556,29.9
6.2,11.9179483565374,36.3142158782909,5.44797552575328,-0.00443343983916833,1,13.9133680555556,29.9
