Time,x_ego,y_ego,velocity,acceleration,action,x_ped,y_ped
0,11.8,15.9,5,0,1,15.5,29.9
0.0333333333333333,11.8,16.0666076888419,4.99642261439338,-0.0035773856066168,1,15.3694444444444,29.9
0.0666666666666667,11.8,16.2330926531145,4.99264756783477,-0.00377504655861216,1,15.2444444444444,29.9
0.1,11.8,16.399449296924,4.98873130122091,-0.00391626661385835,1,15.125,29.9
0.133333333333333,11.8,16.5656736245138,4.98471426828108,-0.00401703293983147,1,15.0111111111111,29.9
0.166666666666667,11.8,16.7317627870126,4.98062546389497,-0.00408880438611448,1,14.9027777777778,29.9
0.2,11.8,16.8977147575669,4.97648566969706,-0.00413979419790333,1,14.8,29.9
0.233333333333333,11.8,17.063528098494,4.97230978036584,-0.00417588933122204,1,14.7027777777778,29.9
0.266666666666667,11.8,17.2292017943893,4.96810847105553,-0.00420130931030815,1,14.6111111111111,29.9
0.3,11.8,17.3947351325064,4.96388939262275,-0.00421907843277847,1,14.525,29.9
0.333333333333333,11.8,17.5601276170202,4.95965802839236,-0.00423136423039949,1,14.4444444444444,29.9
0.366666666666667,11.8,17.7253789075748,4.95541830829244,-0.00423972009991047,1,14.3694444444444,29.9
0.4,11.8,17.8904887752388,4.95117304903021,-0.00424525926223307,1,14.3,29.9
0.433333333333333,11.8,18.0554570709351,4.94692426953351,-0.00424877949670321,1,14.2361111111111,29.9
0.466666666666667,11.8,18.2202837028143,4.94267341695966,-0.00425085257384605,1,14.1777777777778,29.9
0.5,11.8,18.3849686200364,4.93842152859998,-0.00425188835968093,1,14.125,29.9
0.533333333333333,11.8000012215839,18.5495118011464,4.93416934895171,-0.00425217964827151,1,14.0777777777778,29.9
0.566666666666667,11.8000090643133,18.713913245722,4.92991742058081,-0.00425192837090371,1,14.0361111111111,29.9
0.6,11.8000288149948,18.8781729682856,4.92566614535003,-0.00425127523077951,1,14,29.9
0.633333333333333,11.8000664515458,19.0422909937526,4.92141583026067,-0.00425031508936158,1,13.9694444444444,29.9
0.666666666666667,11.8001279313657,19.2062673539456,4.91716669418498,-0.00424913607568556,1,13.9444444444444,29.9
0.7,11.8002172670966,19.3701020850947,4.91291888718819,-0.00424780699679417,1,13.925,29.9
0.733333333333333,11.8003379588779,19.5336506239644,4.89999655062201,-0.012922336566171,1,13.9111111111111,29.9
0.766666666666667,11.8004912167327,19.6965377261684,4.87323471575489,-0.0267618348671261,3,13.9027777777778,29.9
0.8,11.8006752992688,19.8581004681695,4.82053762529059,-0.0526970904643012,3,13.9,29.9
0.833333333333333,11.8008847006214,20.0175031257001,4.7436325725917,-0.0769050526988861,3,13.9,29.9
0.866666666666667,11.8011132634501,20.1741405127292,4.65462416391493,-0.0890084086767748,3,13.9,29.9
0.9,11.8013553116926,20.3276383358528,4.55526148902237,-0.0993626748925518,3,13.9,29.9
0.933333333333333,11.80160587918,20.4777670633479,4.45248132327352,-0.102780165748858,3,13.9,29.9
0.966666666666667,11.8018608607725,20.6244702314902,4.3497312537761,-0.102750069497413,3,13.9,29.9
1,11.802117004617,20.7677488682986,4.24701337676946,-0.102717877006638,3,13.9,29.9
1.03333333333333,11.802371889061,20.9076040601764,4.14432896840808,-0.102684408361381,3,13.9,29.9
1.06666666666667,11.8026239133099,21.0440369333219,4.04167869200727,-0.102650276400812,3,13.9,29.9
1.1,11.8028722603417,21.1770486404463,3.93906281059417,-0.102615881413105,3,13.9,29.9
1.13333333333333,11.803116819793,21.3066403513357,3.83648139286334,-0.102581417730831,3,13.9,29.9
1.16666666666667,11.8033580620192,21.4328132461978,3.73393448687609,-0.102546905987243,3,13.9,29.9
1.2,11.8035968645323,21.5555685110211,3.63142223585246,-0.102512251023633,3,13.9,29.9
1.23333333333333,11.8038343043511,21.6749073343809,3.52894492150812,-0.102477314344345,3,13.9,29.9
1.26666666666667,11.8040714402226,21.7908309052743,3.42650293717746,-0.102441984330652,3,13.9,29.9
1.3,11.8043091139826,21.9033404116676,3.32409670927353,-0.10240622790393,3,13.9,29.9
1.33333333333333,11.8045477989751,22.0124370395154,3.22172659636761,-0.102370112905921,3,13.9,29.9
1.36666666666667,11.8047875157972,22.1181219720677,3.11939279754321,-0.102333798824399,3,13.9,29.9
1.4,11.8050278236031,22.2203963893334,3.01709529568282,-0.102297501860389,3,13.9,29.9
1.43333333333333,11.8052678360178,22.3192324016352,2.9130899128211,-0.104005382861725,3,13.9,29.9
1.46666666666667,11.8055064241173,22.4146311852893,2.81086430539001,-0.102225607431088,3,13.9,29.9
1.5,11.8057423606176,22.5066229788454,2.70867389366807,-0.102190411721944,3,13.9,29.9
1.53333333333333,11.8059743730509,22.5952089479047,2.60651810123246,-0.102155792435609,3,13.9,29.9
1.56666666666667,11.8062012583699,22.6803611858983,2.5026524873186,-0.103865613913861,3,13.9,29.9
1.6,11.8064220620735,22.7620808500653,2.4005647651668,-0.102087722151796,3,13.9,29.9
1.63333333333333,11.8066361738544,22.8404268611947,2.30023284865807,-0.100331916508729,3,13.9,29.9
1.66666666666667,11.8068431687506,22.9154291811599,2.19996199405584,-0.100270854602235,3,13.9,29.9
1.7,11.8070428228436,22.9871253207646,2.10203635204274,-0.0979256420130987,3,13.9,29.9
1.73333333333333,11.8072350950094,23.0555832880841,2.00579731376916,-0.0962390382735747,3,13.9,29.9
1.76666666666667,11.8074200103583,23.1208681123447,1.91167770552381,-0.0941196082453519,3,13.9,29.9
1.8,11.8075976393673,23.1830521508277,1.81974482064601,-0.0919328848778005,3,13.9,29.9
1.83333333333333,11.8077681186835,23.2422366981483,1.73168918723125,-0.0880556334147629,3,13.8991319444444,29.9
1.86666666666667,11.8079315783981,23.2985198612999,1.64563971600809,-0.0860494712231612,3,13.8965277777778,29.9
1.9,11.8080881417879,23.3519954920112,1.56322627885015,-0.0824134371579353,3,13.8921875,29.9
1.93333333333333,11.8082380556967,23.4028127257671,1.48611835368507,-0.077107925165079,3,13.8861111111111,29.9
1.96666666666667,11.8083817020465,23.4511752628371,1.41592662682713,-0.0701917268579406,3,13.8782986111111,29.9
2,11.8085194850472,23.4972832618659,1.35083094487371,-0.0650956819534216,3,13.86875,29.9
2.03333333333333,11.808651899904,23.5413624606494,1.29417814873974,-0.0566527961339731,3,13.8574652777778,29.9
2.06666666666667,11.8087794055391,23.5836056501931,1.24064813641425,-0.0535300123254843,3,13.8444444444444,29.9
2.1,11.8089022930108,23.6241153059305,1.19014870665723,-0.0504994297570203,3,13.8296875,29.9
2.13333333333333,11.8090208634398,23.6629905147543,1.14256775342274,-0.0475809532344953,3,13.8131944444444,29.9
2.16666666666667,11.8091354175815,23.7003272855445,1.09783408501275,-0.0447336684099882,3,13.7949652777778,29.9
2.2,11.8092461834513,23.7361912393058,1.05420016229809,-0.0436339227146632,3,13.775,29.9
2.23333333333333,11.8093533089596,23.7706189526515,1.01166185993178,-0.0425383023663026,3,13.7532986111111,29.9
2.26666666666667,11.8094569865291,23.8036758954358,0.971955218523086,-0.0397066414086963,3,13.7298611111111,29.9
2.3,11.8095574496354,23.8354557689855,0.935036234651592,-0.0369189838714941,3,13.7046875,29.9
2.33333333333333,11.8096549062163,23.8660509583741,0.900870641653731,-0.0341655929978609,3,13.6777777777778,29.9
2.36666666666667,11.8097495423991,23.8955528081543,0.869423050961165,-0.0314475906925664,3,13.6491319444444,29.9
2.4,11.8098414552729,23.924021236,0.838848804788133,-0.0305742461730322,3,13.61875,29.9
2.43333333333333,11.8099307230063,23.9515125518593,0.810781622033844,-0.0280671827542883,3,13.5866319444444,29.9
2.46666666666667,11.8100174813285,23.9781094394088,0.7851688492285,-0.0256127728053445,3,13.5527777777778,29.9
2.5,11.8101017928539,24.0038635580915,0.760202521779775,-0.0249663274487245,3,13.5171875,29.9
2.53333333333333,11.8101835809149,24.0287665355737,0.734090204323346,-0.0261123174564298,3,13.4798611111111,29.9
2.56666666666667,11.8102628431733,24.0528377332425,0.710287025731424,-0.0238031785919213,3,13.4407986111111,29.9
2.6,11.8103396550803,24.0761245266375,0.687018123132046,-0.023268902599378,3,13.4,29.9
2.63333333333333,11.8104140314782,24.098644266787,0.664258747234131,-0.0227593758979153,3,13.3574652777778,29.9
2.66666666666667,11.8104859985766,24.120413819618,0.642007468161595,-0.022251279072536,3,13.3131944444444,29.9
2.7,11.8105555952488,24.1414502776653,0.620273668601463,-0.021733799560132,3,13.2671875,29.9
2.73333333333333,11.8106228718322,24.1617709547896,0.599060917676815,-0.0212127509246476,3,13.2194444444444,29.9
2.76666666666667,11.8106878879303,24.1813932060621,0.578368118670657,-0.0206927990061587,3,13.1699652777778,29.9
2.8,11.810750709959,24.2003342960268,0.558190860861877,-0.0201772578087793,3,13.11875,29.9
2.83333333333333,11.81081140861,24.2186113049377,0.538522413111163,-0.0196684477507144,3,13.0657986111111,29.9
2.86666666666667,11.8108700563836,24.2362410628558,0.519354449192508,-0.0191679639186554,3,13.0111111111111,29.9
2.9,11.8109267253251,24.2532401041627,0.50067757232009,-0.018676876872418,3,12.9546875,29.9
2.93333333333333,11.8109814850646,24.2696246370175,0.482481690246254,-0.0181958820738353,3,12.8965277777778,29.9
2.96666666666667,11.8110344741576,24.2854392086661,0.466476314022521,-0.0160053762237334,5,12.8366319444444,29.9
3,11.8110858994661,24.3007564927411,0.452639054499302,-0.0138372595232186,5,12.775,29.9
3.03333333333333,11.8111358895769,24.3156195622945,0.43921705139218,-0.0134220031071218,5,12.7116319444444,29.9
3.06666666666667,11.8111845681664,24.3300707280306,0.427917769790278,-0.0112992816019021,5,12.6465277777778,29.9
3.1,11.8112320525845,24.3441510314381,0.416959233620879,-0.0109585361693993,5,12.5796875,29.9
3.13333333333333,11.8112784537699,24.3578999732847,0.408030796398091,-0.00892843722278835,5,12.5111111111111,29.9
3.16666666666667,11.8113238776858,24.3713559670963,0.399377903553115,-0.00865289284497522,5,12.4407986111111,29.9
3.2,11.8113683521717,24.3845277315393,0.390974039911974,-0.00840386364114093,5,12.36875,29.9
3.23333333333333,11.8114119016496,24.3974232075776,0.382798608554613,-0.00817543135736137,5,12.2949652777778,29.9
3.26666666666667,11.8114545479855,24.4100497294298,0.374835390573138,-0.00796321798147492,5,12.2194444444444,29.9
3.3,11.8114963112978,24.4224141508558,0.36707142327174,-0.007763967301398,5,12.1421875,29.9
3.33333333333333,11.8115372107032,24.4345229386644,0.359496180607148,-0.00757524266459247,5,12.0631944444444,29.9
3.36666666666667,11.8115772649874,24.4463822421595,0.352100969842353,-0.00739521076479482,5,11.9824652777778,29.9
3.4,11.8116164931846,24.457997944921,0.34487848201123,-0.00722248783112339,5,11.9,29.9
3.43333333333333,11.8116549150526,24.4693757036085,0.337822452300984,-0.00705602971024505,5,11.8157986111111,29.9
3.46666666666667,11.8116925514344,24.4805209772274,0.330927400614339,-0.006895051686645,5,11.7298611111111,29.9
3.5,11.8117294244994,24.491439049379,0.324188432844104,-0.00673896777023503,5,11.6421875,29.9
3.53333333333333,11.8117655578623,24.5021350453455,0.317601090233395,-0.00658734261070965,5,11.5527777777778,29.9
3.56666666666667,11.8118009765858,24.5126139453649,0.311161238186331,-0.00643985204706332,5,11.4616319444444,29.9
3.6,11.8118357070728,24.5228805950931,0.304864987763876,-0.00629625042245507,5,11.36875,29.9
3.63333333333333,11.8118697768604,24.5329397139822,0.298708643648152,-0.00615634411572435,5,11.2741319444444,29.9
3.66666666666667,11.8119032143318,24.5427959021117,0.292688672343568,-0.00601997130458426,5,11.1777777777778,29.9
3.7,11.8119360483615,24.5524536458666,0.286801684404603,-0.00588698793896525,5,11.0796875,29.9
3.73333333333333,11.8119683079131,24.56191732275,0.281044424906295,-0.0057572594983073,5,10.9798611111111,29.9
3.76666666666667,11.8120000216083,24.5711912055448,0.275413767321716,-0.00563065758457942,5,10.8782986111111,29.9
3.8,11.8120312172854,24.580279465979,0.269906707344132,-0.00550705997758422,5,10.775,29.9
3.83333333333333,11.8120619215654,24.5891861780112,0.264520354755375,-0.00538635258875669,5,10.6699652777778,29.9
3.86666666666667,11.8120921594407,24.5979153208206,0.259251922914905,-0.00526843184047038,5,10.5631944444444,29.9
3.9,11.8121219539022,24.6064707815636,0.25409871658266,-0.00515320633224459,5,10.4546875,29.9
3.93333333333333,11.8121513256133,24.6148563579455,0.249058119445013,-0.00504059713764718,5,10.3444444444444,29.9
3.96666666666667,11.8121802926445,24.6230757606397,0.244127582858084,-0.00493053658692902,5,10.2324652777778,29.9
4,11.8122088702701,24.6311326155818,0.23930461703705,-0.00482296582103364,5,10.11875,29.9
4.03333333333333,11.8122370708356,24.6390304661574,0.234586785359557,-0.00471783167749271,5,10.0032986111111,29.9
4.06666666666667,11.8122649036937,24.6467727752977,0.229971701800556,-0.00461508355900098,5,9.88611111111111,29.9
4.1,11.8122923752112,24.6543629274958,0.225457030943137,-0.00451467085741894,5,9.7671875,29.9
4.13333333333333,11.8123194889278,24.6618042626052,0.221043869982131,-0.00441316096100597,5,9.64652777777778,29.9
4.16666666666667,11.8123462463272,24.6691003116635,0.216741567537851,-0.00430230244428098,5,9.52413194444444,29.9
4.2,11.8123726473254,24.6762549062146,0.212557662033121,-0.00418390550472944,5,9.4,29.9
4.23333333333333,11.8123986121096,24.6832433939245,0.206777103578119,-0.00578055845500183,5,9.27413194444444,29.9
4.26666666666667,11.8124241378976,24.6900701684824,0.202855847769546,-0.00392125580857355,5,9.14652777777778,29.9
4.3,11.8124492206385,24.6967398374468,0.197351362686617,-0.00550448508292911,5,9.0171875,29.9
4.33333333333333,11.8124739338339,24.7032858106198,0.195432690445163,-0.0019186722414537,5,8.88611111111111,29.9
4.36666666666667,11.812498507577,24.7097989900241,0.195378660670917,-5.40297742457063e-05,5,8.75329861111111,29.9
4.4,11.8125230913373,24.7163406208845,0.197133371079744,0.00175471040882638,5,8.61875,29.9
4.43333333333333,11.812548148008,24.7230857710642,0.207577013540988,0.0104436424612442,5,8.48246527777778,29.9
4.46666666666667,11.8125747699309,24.7304375344281,0.233502945228215,0.0259259316872273,4,8.34444444444444,29.9
4.5,11.812604519945,24.7389671644117,0.278220245578259,0.0447173003500442,4,8.2046875,29.9
4.53333333333333,11.8126382464571,24.7489805401074,0.32250248593587,0.0442822403576106,4,8.06319444444444,29.9
4.56666666666667,11.8126759309663,24.7604607373032,0.366213511335833,0.0437110253999632,4,7.91996527777778,29.9
4.6,11.8127175695983,24.773386990778,0.409257187355152,0.0430436760193184,4,7.775,29.9
4.63333333333333,11.8127631802817,24.7877358466924,0.451566536916746,0.0423093495615944,4,7.62829861111111,29.9
4.66666666666667,11.8128128077179,24.8034819492958,0.493089180071004,0.0415226431542577,4,7.47986111111111,29.9
4.7,11.8128665248131,24.8205980961448,0.533766323858466,0.0406771437874625,4,7.3296875,29.9
4.73333333333333,11.8129244325164,24.8390553707191,0.573555657577621,0.0397893337191553,4,7.17777777777778,29.9
4.76666666666667,11.8129866590295,24.8588237795368,0.612433086582044,0.0388774290044223,4,7.02413194444444,29.9
4.8,11.8130533565512,24.8798727646469,0.650387883421527,0.0379547968394832,4,6.86875,29.9
4.83333333333333,11.8131246955429,24.9021715764042,0.687419269773716,0.0370313863521891,4,6.71163194444444,29.9
4.86666666666667,11.8132008573704,24.9256897470961,0.72355248298282,0.0361332132091041,4,6.55277777777778,29.9
4.9,11.8132820274557,24.9503983007578,0.758845431710714,0.0352929487278938,4,6.3921875,29.9
4.93333333333333,11.8133683849605,24.9762700762282,0.793348071710061,0.0345026399993468,4,6.22986111111111,29.9
4.96666666666667,11.8134600916205,25.0032798701427,0.827161966790358,0.0338138950802976,4,6.06579861111111,29.9
5,11.8135573006818,25.0314115469784,0.860785982159127,0.0336240153687686,4,5.9,29.9
5.03333333333333,11.8136601915457,25.0606736006556,0.895172527925725,0.0343865457665978,4,5.9,29.9
5.06666666666667,11.8137689984499,25.091111371691,0.931551989338886,0.0363794614131613,4,5.9,29.9
5.1,11.8138840288497,25.1228140483782,0.971308253363857,0.0397562640249712,4,5.9,29.9
5.13333333333333,11.8140056743684,25.1559172976349,1.01579125820617,0.0444830048423087,4,5.9,29.9
5.16666666666667,11.8141344005019,25.1905967021663,1.0660229000768,0.0502316418706388,4,5.9,29.9
5.2,11.8142707284173,25.2270568416417,1.12273957683352,0.0567166767567133,4,5.9,29.9
5.23333333333333,11.8144152283019,25.2655229454783,1.18644390399395,0.0637043271604361,4,5.9,29.9
5.26666666666667,11.8145685163447,25.3062325357817,1.25735630062902,0.0709123966350669,4,5.9,29.9
5.3,11.8147312499851,25.3494255615651,1.33542684557541,0.078070544946385,4,5.9,29.9
5.33333333333333,11.8149041337704,25.3953377444158,1.42046147795904,0.0850346323836346,4,5.9,29.9
5.36666666666667,11.8150879304725,25.4441959705199,1.51212037085539,0.0916588928963471,4,5.9,29.9
5.4,11.8152834674286,25.4962132128603,1.60990884292624,0.0977884720708504,4,5.9,29.9
5.43333333333333,11.815491635708,25.5515832170471,1.71317221436935,0.103263371443114,4,5.9,29.9
5.46666666666667,11.8157133836408,25.6104764426104,1.82118539874108,0.108013184371729,4,5.9,29.9
5.5,11.8159497054045,25.6730381952489,1.93313729318241,0.111951894441331,4,5.9,29.9
5.53333333333333,11.8162016085883,25.7393839812609,2.04807897653996,0.114941683357549,4,5.9,29.9
5.56666666666667,11.8164700816326,25.8095985986751,2.16513621911139,0.117057242571424,4,5.9,29.9
5.6,11.8167560662965,25.8837395292965,2.28354308887815,0.118406869766762,4,5.9,29.9
5.63333333333333,11.8170604273316,25.9618404380332,2.40263428051605,0.119091191637906,4,5.9,29.9
5.66666666666667,11.8173839238834,26.0439143593318,2.52184159821255,0.119207317696493,4,5.9,29.9
5.7,11.8177271896367,26.1299583463459,2.64079419847471,0.118952600262165,4,5.9,29.9
5.73333333333333,11.8180907052203,26.2199598815979,2.75925744503591,0.1184632465612,4,5.9,29.9
5.76666666666667,11.8184747959274,26.3138992424358,2.8770318971595,0.117774452123592,4,5.9,29.9
5.8,11.8188793149857,26.4117506054692,2.99395135051576,0.116919453356262,4,5.9,29.9
5.83333333333333,11.8193027516249,26.5134829716396,3.10986731526578,0.115915964750015,4,5.9,29.9
5.86666666666667,11.819743588207,26.6190602089335,3.22460808195624,0.114740766690462,4,5.9,29.9
5.9,11.8202007914341,26.7284394629757,3.33795853574713,0.113350453790892,4,5.9,29.9
5.93333333333333,11.8206738482064,26.8415717832366,3.44977730774827,0.111818772001137,4,5.9,29.9
5.96666666666667,11.8211627329005,26.958404747306,3.55999246480613,0.110215157057858,4,5.9,29.9
6,11.8216678219576,27.0788843474499,3.66857724648449,0.108584781678363,4,5.9,29.9
6.03333333333333,11.8221897819895,27.2029562056831,3.77553399655107,0.106956750066579,4,5.9,29.9
6.06666666666667,11.8227294540011,27.330566342145,3.88087526984265,0.105341273291583,4,5.9,29.9
6.1,11.8232877429018,27.4616599394281,3.98453003120624,0.103654761363588,4,5.9,29.9
6.13333333333333,11.8238655264216,27.596179816049,4.08645540605604,0.101925374849803,4,5.9,29.9
6.16666666666667,11.8244636010131,27.7340686550429,4.18667889091167,0.100223484855623,4,5.9,29.9
6.2,11.8250826473705,27.8752705944897,4.28525270871245,0.0985738178007871,4,5.9,29.9
6.23333333333333,11.8257232092773,28.0197313077583,4.3822098792191,0.0969571705066459,4,5.9,29.9
6.26666666666667,11.8263856824255,28.1673965827355,4.47751522765659,0.0953053484374937,4,5.9,29.9
6.3,11.8270703102968,28.3182094518306,4.57103999606963,0.0935247684130385,4,5.9,29.9
6.33333333333333,11.827777189269,28.4721071177736,4.66255814083263,0.0915181447629969,4,5.9,29.9
6.36666666666667,11.8285062715333,28.6290155560042,4.75157600714233,0.0890178663096988,4,5.9,29.9
6.4,11.8292573637222,28.7888421573799,4.83760220445425,0.0860261973119201,4,5.9,29.9
6.43333333333333,11.8300301834056,28.9514822603194,4.92035106908416,0.0827488646299166,4,5.9,29.9
6.46666666666667,11.8308244058802,29.1168236280514,4.99967286137014,0.0793217922859757,4,5.9,29.9
6.5,11.8316397160982,29.2847531537986,5.07568972675622,0.0760168653860847,4,5.9,29.9
6.53333333333333,11.8324758582035,29.45516447112,5.14859212893916,0.0729024021829359,4,5.9,29.9
6.56666666666667,11.833332616872,29.6279517436189,5.2181575209955,0.0695653920563419,4,5.9,29.9
6.6,11.8342097287623,29.8029901226666,5.2834660725892,0.0653085515937022,4,5.9,29.9
6.63333333333333,11.8351067902407,29.9801181531286,5.34332513105606,0.0598590584668575,4,5.9,29.9
