Time,x_ego,y_ego,velocity,acceleration,action,x_ped,y_ped
0,11.8,8.9,7,0,1,15.5,29.9
0.0333333333333333,11.8000041796125,9.13327037938785,6.99615578816176,-0.00384421183823669,1,15.3694444444444,29.9
0.0666666666666667,11.8000303314699,9.36640659855808,6.99196956641274,-0.00418622174902605,1,15.2444444444444,29.9
0.1,11.8000926098639,9.59940075300012,6.98769531271503,-0.00427425369770873,1,15.125,29.9
0.133333333333333,11.8001983545981,9.83225377515495,6.98349833673929,-0.00419697597573787,1,15.0111111111111,29.9
0.166666666666667,11.8003501253732,10.0649678497707,6.97935694703285,-0.00414138970643929,1,14.9027777777778,29.9
0.2,11.8005475247233,10.2975445477902,6.97525566969027,-0.0041012773425857,1,14.8,29.9
0.233333333333333,11.8007885944797,10.5299850136892,6.97118413743149,-0.00407153225877899,1,14.7027777777778,29.9
0.266666666666667,11.8010707396655,10.7622901166904,6.96713583314638,-0.00404830428510472,1,14.6111111111111,29.9
0.3,11.8013912465635,10.9944605549488,6.96310673007872,-0.00402910306766646,1,14.525,29.9
0.333333333333333,11.8017475162564,11.2264969217676,6.95909436982578,-0.00401236025293361,1,14.4444444444444,29.9
0.366666666666667,11.8021371408657,11.4583997468273,6.95509726046257,-0.00399710936320918,1,14.3694444444444,29.9
0.4,11.8025579234151,11.6901695210838,6.95111446365555,-0.00398279680702629,1,14.3,29.9
0.433333333333333,11.8030079015482,11.9218067069149,6.94714507862244,-0.00396938503310196,1,14.2361111111111,29.9
0.466666666666667,11.8034853953768,12.1533117298366,6.94318767555297,-0.0039574030694709,1,14.1777777777778,29.9
0.5,11.8039890704979,12.3846849441767,6.9392391983189,-0.00394847723406944,1,14.125,29.9
0.533333333333333,11.8045179928513,12.6159265627829,6.93529425681544,-0.00394494150346425,1,14.0777777777778,29.9
0.566666666666667,11.8050716517664,12.8470365873705,6.93134578966943,-0.0039484671460146,1,14.0361111111111,29.9
0.6,11.8056499369483,13.0780147814548,6.92738756925247,-0.00395822041695215,1,14,29.9
0.633333333333333,11.8062530688864,13.3088608153245,6.92342052653553,-0.00396704271694226,1,13.9694444444444,29.9
0.666666666666667,11.8068814942934,13.5395744383872,6.91944738726463,-0.00397313927090437,1,13.9444444444444,29.9
0.7,11.807536601461,13.7701554759444,6.91547017858793,-0.00397720867669449,1,13.925,29.9
0.733333333333333,11.8082224974246,14.0006038025614,6.91149033359038,-0.00397984499754944,1,13.9111111111111,29.9
0.766666666666667,11.8089432668763,14.2309193311062,6.907508877524,-0.003981456066386,1,13.9027777777778,29.9
0.8,11.8097040703606,14.4611019985243,6.90352653064061,-0.00398234688338217,1,13.9,29.9
0.833333333333333,11.8105082604586,14.6911517644486,6.8995437513961,-0.00398277924451129,1,13.9,29.9
0.866666666666667,11.8113571498767,14.9210686070237,6.89556086471357,-0.00398288668253688,1,13.9,29.9
0.9,11.8122507099438,15.1508525180635,6.89157810714677,-0.00398275756679123,1,13.9,29.9
0.933333333333333,11.8131881495479,15.3805034993331,6.88759565713532,-0.0039824500114598,1,13.9,29.9
0.966666666666667,11.8141683331395,15.6100215597407,6.88361365279486,-0.0039820043404557,1,13.9,29.9
1,11.8151900427993,15.8394067132557,6.87963220162832,-0.00398145116653748,1,13.9,29.9
1.03333333333333,11.816252014157,16.0686299119798,6.87390748595427,-0.00572471567404964,1,13.9,29.9
1.06666666666667,11.8173526593119,16.2975465804186,6.86125169568536,-0.0126557902689139,1,13.9,29.9
1.1,11.8184900169185,16.5258969962639,6.83994373298224,-0.0213079627031165,3,13.9,29.9
1.13333333333333,11.8196621308301,16.7534218413441,6.8117288623648,-0.0282148706174459,3,13.9,29.9
1.16666666666667,11.8208670235673,16.9798618406075,6.77486444826464,-0.0368644141001582,3,13.9,29.9
1.2,11.8221028183104,17.2049864689877,6.73281804238587,-0.0420464058787644,3,13.9,29.9
1.23333333333333,11.823367612142,17.4285652445678,6.68212480691116,-0.0506932354747152,3,13.9,29.9
1.26666666666667,11.8246593518546,17.6503390309708,6.62453023161043,-0.0575945753007252,3,13.9,29.9
1.3,11.8259763587266,17.870135209744,6.56347992899307,-0.0610503026173665,3,13.9,29.9
1.33333333333333,11.8273172100498,18.0878386035013,6.49897483721566,-0.064505091777411,3,13.9,29.9
1.36666666666667,11.8286809106268,18.3034208974347,6.43622570121442,-0.0627491360012389,3,13.9,29.9
1.4,11.8300667576041,18.5169115577823,6.37348869886795,-0.0627370023464628,3,13.9,29.9
1.43333333333333,11.8314742112128,18.728368759376,6.31422997187574,-0.0592587269922147,3,13.9,29.9
1.46666666666667,11.8329025670415,18.9378216084385,6.25323922618454,-0.0609907456912007,3,13.9,29.9
1.5,11.8343507858227,19.1452414456103,6.19226054176675,-0.0609786844177869,3,13.9,29.9
1.53333333333333,11.835818140359,19.3506577453447,6.13303784007535,-0.0592227016913975,3,13.9,29.9
1.56666666666667,11.8373038938276,19.5540999783106,6.07382703193342,-0.059210808141934,3,13.9,29.9
1.6,11.8388071344978,19.7555685467115,6.01462813152926,-0.0591989004041613,3,13.9,29.9
1.63333333333333,11.840326955613,19.9550638511844,5.95544117071053,-0.0591869608187272,3,13.9,29.9
1.66666666666667,11.8418624641567,20.1525862907378,5.89626617796164,-0.0591749927488889,3,13.9,29.9
1.7,11.8434127870234,20.348136262703,5.83710315922341,-0.0591630187382322,3,13.9,29.9
1.73333333333333,11.8449770735647,20.5417141627076,5.77795208548066,-0.0591510737427496,3,13.9,29.9
1.76666666666667,11.846554494472,20.7333203846725,5.71881288974599,-0.0591391957346676,3,13.9,29.9
1.8,11.8481442377922,20.9229553208309,5.65968547332804,-0.0591274164179536,3,13.9,29.9
1.83333333333333,11.8497452910159,21.1105902967604,5.59882580147676,-0.0608596718512802,3,13.8991319444444,29.9
1.86666666666667,11.8513562084526,21.2961388739696,5.53451182685388,-0.0643139746228814,3,13.8965277777778,29.9
1.9,11.8529752956019,21.479486285527,5.46676565496831,-0.0677461718855703,3,13.8921875,29.9
1.93333333333333,11.8546001306674,21.6604313103209,5.39037771127908,-0.0763879436892232,3,13.8861111111111,29.9
1.96666666666667,11.8562277420674,21.8387149885597,5.30709293531208,-0.0832847759670079,3,13.8782986111111,29.9
2,11.8578552447982,22.0141070961443,5.21689052999263,-0.0902024053194452,3,13.86875,29.9
2.03333333333333,11.8594798436393,22.1864061451897,5.12151550978176,-0.0953750202108701,3,13.8574652777778,29.9
2.06666666666667,11.861099080757,22.3554684461821,5.02269096052694,-0.0988245492548199,3,13.8444444444444,29.9
2.1,11.8627111100804,22.5212368032297,4.92388368873877,-0.0988072717881732,3,13.8296875,29.9
2.13333333333333,11.8643145067553,22.6837118011425,4.82509400020647,-0.098789688532297,3,13.8131944444444,29.9
2.16666666666667,11.8659078236868,22.8428940314827,4.72632202372054,-0.0987719764859349,3,13.7949652777778,29.9
2.2,11.8674898744466,22.9988131539809,4.62931166551598,-0.0970103582045585,3,13.775,29.9
2.23333333333333,11.8690597557961,23.1515265035885,4.53395136361044,-0.0953603019055329,3,13.7532986111111,29.9
2.26666666666667,11.8706165995531,23.301087618564,4.44018948717815,-0.0937618764322972,3,13.7298611111111,29.9
2.3,11.8721593633666,23.4475218758727,4.34634837444417,-0.0938411127339807,3,13.7046875,29.9
2.33333333333333,11.8736871039376,23.5908562801318,4.25420386666782,-0.0921445077763519,3,13.6777777777778,29.9
2.36666666666667,11.875198691205,23.7310896721093,4.1602907829757,-0.0939130836921116,3,13.6491319444444,29.9
2.4,11.8766925191715,23.8681637740715,4.06464752188514,-0.095643261090566,3,13.61875,29.9
2.43333333333333,11.8781670190664,24.0020211417819,3.96728617194234,-0.0973613499427963,3,13.5866319444444,29.9
2.46666666666667,11.8796206308636,24.1326043091189,3.86819376141462,-0.0990924105277249,3,13.5527777777778,29.9
2.5,11.8810515055369,24.2598273579438,3.76567642500007,-0.102517336414548,3,13.5171875,29.9
2.53333333333333,11.8824569051236,24.3835180909086,3.65625127396287,-0.109425151037195,3,13.4798611111111,29.9
2.56666666666667,11.8838334421049,24.5034466994951,3.53994436095394,-0.11630691300893,3,13.4407986111111,29.9
2.6,11.8851776197507,24.6193835084674,3.41673748031392,-0.123206880640028,3,13.4,29.9
2.63333333333333,11.8864864087373,24.7311567242978,3.29012162139034,-0.126615858923581,3,13.3574652777778,29.9
2.66666666666667,11.887757261933,24.838652413598,3.16007736203918,-0.130044259351157,3,13.3131944444444,29.9
2.7,11.8889875451752,24.9417563547242,3.02660668834263,-0.133470673696553,3,13.2671875,29.9
2.73333333333333,11.8901748681026,25.0403834526653,2.89145525280879,-0.135151435533834,3,13.2194444444444,29.9
2.76666666666667,11.8913171140953,25.1344773620295,2.75460256473859,-0.136852688070207,3,13.1699652777778,29.9
2.8,11.8924124807782,25.2240104751077,2.6177936090392,-0.136808955699381,3,13.11875,29.9
2.83333333333333,11.8934595220547,25.3089842730725,2.48102900395336,-0.136764605085842,3,13.0657986111111,29.9
2.86666666666667,11.8944568769902,25.3894002508059,2.34430907592004,-0.136719928033317,3,13.0111111111111,29.9
2.9,11.8954033228616,25.4652599772296,2.20764744708143,-0.136661628838615,3,12.9546875,29.9
2.93333333333333,11.8962978743294,25.5365714975189,2.07161201373799,-0.136035433343439,3,12.8965277777778,29.9
2.96666666666667,11.8971401058464,25.6033790094722,1.93756296387656,-0.13404904986143,3,12.8366319444444,29.9
3,11.8979304385796,25.6657894141924,1.80780480999836,-0.129758153878202,3,12.775,29.9
3.03333333333333,11.8986692169507,25.7238897489741,1.67893629675998,-0.128868513238382,3,12.7116319444444,29.9
3.06666666666667,11.8993569109483,25.77776706644,1.55440039140056,-0.124535905359415,3,12.6465277777778,29.9
3.1,11.8999953748898,25.8276227257491,1.43760479113155,-0.116795600269017,3,12.5796875,29.9
3.13333333333333,11.9005865348821,25.8736555480559,1.32500044033027,-0.112604350801276,3,12.5111111111111,29.9
3.16666666666667,11.9011317312444,25.916004434121,1.21653327328331,-0.108467167046957,3,12.4407986111111,29.9
3.2,11.901632013946,25.9547765037293,1.11036082195694,-0.106172451326375,3,12.36875,29.9
3.23333333333333,11.902088129018,25.9900474911923,1.00646224141285,-0.103898580544088,3,12.2949652777778,29.9
3.26666666666667,11.9025008735545,26.0218944526675,0.904920449739813,-0.101541791673037,3,12.2194444444444,29.9
3.3,11.9028710972648,26.0503968601246,0.805770221479035,-0.0991502282607778,3,12.1421875,29.9
3.33333333333333,11.9031996493542,26.0756326376373,0.708890726268023,-0.0968794952110116,3,12.0631944444444,29.9
3.36666666666667,11.903486676828,26.0976175212579,0.610699783288257,-0.0981909429797659,3,11.9824652777778,29.9
3.4,11.9037329731876,26.1164231317084,0.518138976600254,-0.0925608066880037,3,11.9,29.9
3.43333333333333,11.903939677683,26.1321509105175,0.426029753263285,-0.092109223336969,3,11.8157986111111,29.9
3.46666666666667,11.9041076090332,26.1448739486328,0.337840568437511,-0.0881891848257738,3,11.7298611111111,29.9
3.5,11.9042379025744,26.1546924499304,0.251740875065561,-0.0860996933719498,3,11.6421875,29.9
3.53333333333333,11.9043313299463,26.1616746133626,0.16765910146244,-0.0840817736031212,3,11.5527777777778,29.9
3.56666666666667,11.9043886681372,26.1658887129961,0.085708216799578,-0.0819508846628618,3,11.4616319444444,29.9
3.6,11.904410753416,26.1674078335897,0.00664776038124191,-0.0790604564183361,3,11.36875,29.9
3.63333333333333,11.9044012491277,26.1665497188735,0.0363233038995991,0.0296755435183572,4,11.2741319444444,29.9
3.66666666666667,11.9043837652665,26.1653417236325,0.00202323388543377,-0.0343000700141654,3,11.1777777777778,29.9
3.7,11.9043837652665,26.1653417236325,0.00197868888700109,-4.45449984326799e-05,5,11.0796875,29.9
3.73333333333333,11.9043837652665,26.1653417236325,0.00226388947760515,0.000285200590604067,5,10.9798611111111,29.9
3.76666666666667,11.9043837652665,26.1653417236325,0.00282138374098973,0.000557494263384579,5,10.8782986111111,29.9
3.8,11.9043837652665,26.1653417236325,0.0035601436920465,0.000738759951056765,5,10.775,29.9
3.83333333333333,11.9043837652665,26.1653417236325,0.00437129766417778,0.000811153972131289,5,10.6699652777778,29.9
3.86666666666667,11.9043837652665,26.1653417236325,0.00514281837731102,0.000771520713133234,5,10.5631944444444,29.9
3.9,11.9043837652665,26.1653417236325,0.00577209765388895,0.000629279276577927,5,10.4546875,29.9
3.93333333333333,11.9043837652665,26.1653417236325,0.00617569082613255,0.000403593172243606,5,10.3444444444444,29.9
3.96666666666667,11.9043837652665,26.1653417236325,0.00629586058319299,0.000120169757060441,5,10.2324652777778,29.9
4,11.9043837652665,26.1653417236325,0.00610386662905168,-0.000191993954141316,5,10.11875,29.9
4.03333333333333,11.9043837652665,26.1653417236325,0.00560021571112459,-0.000503650917927087,5,10.0032986111111,29.9
4.06666666666667,11.9043837652665,26.1653417236325,0.00481229456728659,-0.000787921143838004,5,9.88611111111111,29.9
4.1,11.9043837652665,26.1653417236325,0.00378995066366778,-0.00102234390361881,5,9.7671875,29.9
4.13333333333333,11.9043837652665,26.1653417236325,0.00259966243373603,-0.00119028822993175,5,9.64652777777778,29.9
4.16666666666667,11.9043837652665,26.1653417236325,0.00131795694735487,-0.00128170548638116,5,9.52413194444444,29.9
4.2,11.9043837652665,26.1653417236325,2.46969759446168e-05,-0.00129325997141025,5,9.4,29.9
4.23333333333333,11.9043837652665,26.1653417236325,0.00120321789216653,0.00117852091622192,5,9.27413194444444,29.9
4.26666666666667,11.9043837652665,26.1653417236325,0.0021987100475899,0.000995492155423366,5,9.14652777777778,29.9
4.3,11.9043918723758,26.1660437524838,0.0407853499608929,0.0385866399133031,4,9.0171875,29.9
4.33333333333333,11.9044173774666,26.1682522642594,0.0917882039066353,0.0510028539457424,4,8.88611111111111,29.9
4.36666666666667,11.9044624194833,26.1721512599007,0.142101799446397,0.0503135955397615,4,8.75329861111111,29.9
4.4,11.9045267086224,26.1777124315395,0.191454295061921,0.0493524956155241,4,8.61875,29.9
4.43333333333333,11.9046099062162,26.1849004415678,0.239672223770341,0.04821792870842,4,8.48246527777778,29.9
4.46666666666667,11.9047116666973,26.1936758536078,0.286697183008242,0.0470249592379012,4,8.34444444444444,29.9
4.5,11.9048316953576,26.2039996104236,0.332585767549797,0.0458885845415548,4,8.2046875,29.9
4.53333333333333,11.9049697703302,26.2158346195802,0.377390110656324,0.044804343106527,4,8.06319444444444,29.9
4.56666666666667,11.9051257393998,26.2291453880192,0.421151413317188,0.0437613026608641,4,7.91996527777778,29.9
4.6,11.9052995146189,26.2438977149009,0.463903041773612,0.0427516284564237,4,7.775,29.9
4.63333333333333,11.9054910631651,26.26005831832,0.505659899782393,0.0417568580087813,4,7.62829861111111,29.9
4.66666666666667,11.9057003899043,26.2775940027237,0.546416336072025,0.0407564362896319,4,7.47986111111111,29.9
4.7,11.9059275246879,26.2964714820117,0.586173762374132,0.0397574263021068,4,7.3296875,29.9
4.73333333333333,11.9061725120572,26.3166576256353,0.624940553134773,0.0387667907606414,4,7.17777777777778,29.9
4.76666666666667,11.9064353983197,26.3381196435023,0.662729899587149,0.0377893464523755,4,7.02413194444444,29.9
4.8,11.9067162169004,26.3608252254127,0.699560387630483,0.0368304880433349,4,6.86875,29.9
4.83333333333333,11.9070149784958,26.3847431254081,0.735483447536266,0.0359230599057822,4,6.71163194444444,29.9
4.86666666666667,11.9073316789284,26.4098452176478,0.770684475060653,0.0352010275243878,4,6.55277777777778,29.9
4.9,11.9076664122959,26.4361174566295,0.805857175351872,0.0351727002912186,4,6.3921875,29.9
4.93333333333333,11.9080195550438,26.4635765957567,0.842117570108593,0.0362603947567207,4,6.22986111111111,29.9
4.96666666666667,11.9083918836887,26.4922806756845,0.880796216449011,0.038678646340418,4,6.06579861111111,29.9
5,11.9087846330691,26.5223338044473,0.923306907723852,0.0425106912748415,4,5.9,29.9
5.03333333333333,11.9091994991032,26.5538855616166,0.970901457455269,0.0475945497314164,4,5.9,29.9
5.06666666666667,11.9096385405011,26.5871211764044,1.02447334875707,0.0535718913018008,4,5.9,29.9
5.1,11.9101040763606,26.6222508569244,1.08463646403205,0.0601631152749806,4,5.9,29.9
5.13333333333333,11.9105986111259,26.6595010080515,1.1517463172706,0.0671098532385528,4,5.9,29.9
5.16666666666667,11.9111247560254,26.6991047658082,1.22584681643835,0.0741004991677459,4,5.9,29.9
5.2,11.9116851546711,26.7412926122483,1.30676095018187,0.080914133743522,4,5.9,29.9
5.23333333333333,11.9122824526884,26.7862866010714,1.3941618093294,0.0874008591475288,4,5.9,29.9
5.26666666666667,11.9129192739875,26.8342952389034,1.48756156718399,0.0933997578545882,4,5.9,29.9
5.3,11.9135981910419,26.8855082530597,1.58632883882955,0.0987672716455601,4,5.9,29.9
5.33333333333333,11.9143216991598,26.9400924335243,1.68972189584074,0.103393057011191,4,5.9,29.9
5.36666666666667,11.915092192394,26.9981886981799,1.79694597483722,0.107224078996478,4,5.9,29.9
5.4,11.915911942807,27.0599108135708,1.9071345267529,0.110188551915678,4,5.9,29.9
5.43333333333333,11.9167830258009,27.1253412076286,2.0193145628502,0.112180036097309,4,5.9,29.9
5.46666666666667,11.9177072863504,27.1945317625382,2.13263942314966,0.113324860299457,4,5.9,29.9
5.5,11.9186863353912,27.2675084229853,2.24639583856304,0.113756415413377,4,5.9,29.9
5.53333333333333,11.9197215281783,27.3442751408658,2.35997088761731,0.113575049054267,4,5.9,29.9
5.56666666666667,11.9208139332088,27.424817214789,2.47287991656198,0.112909028944672,4,5.9,29.9
5.6,11.9219643463751,27.509107810545,2.58487523519568,0.111995318633708,4,5.9,29.9
5.63333333333333,11.9231732855092,27.5971138124215,2.69580593345681,0.110930698261126,4,5.9,29.9
5.66666666666667,11.9244409539924,27.6887977458873,2.80555729565665,0.10975136219984,4,5.9,29.9
5.7,11.9257672821512,27.7841186480014,2.91403438451863,0.108477088861981,4,5.9,29.9
5.73333333333333,11.9271520010947,27.8830326844027,3.02115658183443,0.107122197315801,4,5.9,29.9
5.76666666666667,11.9285947148634,27.9854927058623,3.12679378133108,0.105637199496651,4,5.9,29.9
5.8,11.9300949588854,28.0914468832443,3.23081922575384,0.104025444422754,4,5.9,29.9
5.83333333333333,11.9316522843661,28.2008403751736,3.33317682652074,0.102357600766904,4,5.9,29.9
5.86666666666667,11.933266328541,28.3136173519998,3.43385941951806,0.100682592997315,4,5.9,29.9
5.9,11.9349368547858,28.4297222987745,3.53289024232342,0.0990308228053687,4,5.9,29.9
5.93333333333333,11.9366637665112,28.5491008019411,3.63031021400477,0.0974199716813424,4,5.9,29.9
5.96666666666667,11.9384470965884,28.6716996576107,3.72613504202253,0.0958248280177645,4,5.9,29.9
6,11.9402869582693,28.7974648687297,3.82031567868997,0.0941806366674411,4,5.9,29.9
6.03333333333333,11.9421835148998,28.9263414761603,3.91285338130958,0.0925377026196119,4,5.9,29.9
6.06666666666667,11.9441369762988,29.0582754083659,4.00379364285299,0.0909402615434098,4,5.9,29.9
6.1,11.9461475829013,29.1932141528325,4.09317406633095,0.0893804234779596,4,5.9,29.9
6.13333333333333,11.948215565559,29.3311052599185,4.18094343452561,0.0877693681946585,4,5.9,29.9
6.16666666666667,11.9503410451287,29.4718901358775,4.26667933822744,0.0857359037018304,4,5.9,29.9
6.2,11.9525236352191,29.6154764237825,4.34862498705663,0.0819456488291861,4,5.9,29.9
6.23333333333333,11.9547617324294,29.7616888979684,4.42374713889244,0.0751221518358101,4,5.9,29.9
6.26666666666667,11.9570521631655,29.9102474495408,4.48891537654413,0.0651682376516955,4,5.9,29.9
6.3,11.9593901533385,30.060769050192,4.5410385565399,0.052123179995764,4,5.9,29.9
6.33333333333333,11.9617694885695,30.2127833012634,4.57866196259513,0.0376234060552347,4,5.9,29.9
6.36666666666667,11.9641841093561,30.3658466288584,4.60464691207948,0.0259849494843447,4,5.9,29.9
6.4,11.9666293644033,30.5196288136581,4.62227872221122,0.0176318101317428,1,5.9,29.9
6.43333333333333,11.9691017610595,30.6738929325374,4.63391609973519,0.0116373775239689,1,5.9,29.9
6.46666666666667,11.971598630728,30.8284689068421,4.64124849781017,0.00733239807498087,1,5.9,29.9
6.5,11.9741179037452,30.9832345298471,4.64548566955836,0.00423717174818616,1,5.9,29.9
6.53333333333333,11.9766579595226,31.1381018679983,4.64749348976985,0.00200782021148882,1,5.9,29.9
6.56666666666667,11.9792175265415,31.2930075128702,4.64789128468129,0.000397794911443761,1,5.9,29.9
