Time,x_ego,y_ego,velocity,acceleration,action,x_ped,y_ped
0,11.8,15.9,5,0,1,15.5,29.9
0.0333333333333333,11.8000006488626,16.0666076888417,4.99642261469764,-0.00357738530236151,1,15.5,29.9
0.0666666666666667,11.8000048115017,16.233092653108,4.99264757150657,-0.00377504319106947,1,15.5,29.9
0.1,11.8000149633178,16.3994492968633,4.98873131485878,-0.0039162566477895,1,15.5,29.9
0.133333333333333,11.800032530516,16.5656736242333,4.98471429915934,-0.00401701569943747,1,15.5,29.9
0.166666666666667,11.8000580714927,16.7317627861409,4.98062551684281,-0.0040887823165292,1,15.5,29.9
0.2,11.8000914994651,16.8977147554643,4.97648574561644,-0.0041397712263711,1,15.5,29.9
0.233333333333333,11.8001322997913,17.0635280942387,4.97230987652223,-0.00417586909421264,1,15.5,29.9
0.266666666666667,11.8001797141616,17.2292017868136,4.96810858238913,-0.00420129413310288,1,15.5,29.9
0.3,11.8002328809621,17.3947351202675,4.96388951324349,-0.00421906914563586,1,15.5,29.9
0.333333333333333,11.8002909336538,17.560127598685,4.95965815274132,-0.00423136050217199,1,15.5,29.9
0.366666666666667,11.800353065849,17.7253788816978,4.95541843181424,-0.00423972092708169,1,15.5,29.9
0.4,11.8004185733854,17.8904887404202,4.95117316842882,-0.00424526338541487,1,15.5,29.9
0.433333333333333,11.8004868816724,18.0554570258538,4.94692438276059,-0.00424878566823494,1,15.5,29.9
0.466666666666667,11.8005575628995,18.2202836462337,4.94267352306623,-0.00425085969435557,1,15.5,29.9
0.5,11.8006303441845,18.3849685507886,4.93842162753395,-0.00425189553227945,1,15.5,29.9
0.533333333333333,11.8007051055979,18.5495117181001,4.93416944024885,-0.00425218728509691,1,15.5,29.9
0.566666666666667,11.8007818667017,18.7139131477619,4.92991749429551,-0.00425194595334411,1,15.5,29.9
0.6,11.8008607615162,18.8781728544066,4.92566617134226,-0.00425132295325081,1,15.5,29.9
0.633333333333333,11.8009420039656,19.0422908634299,4.92141574440033,-0.00425042694192612,1,15.5,29.9
0.666666666666667,11.8010258479614,19.2062672079326,4.9171664085398,-0.00424933586053111,1,15.5,29.9
0.7,11.801112547607,19.3701019265346,4.91291830297291,-0.00424810556689259,1,15.5,29.9
0.733333333333333,11.8012023231166,19.5337950618125,4.90867152693718,-0.00424677603573365,1,15.5,29.9
0.766666666666667,11.8012953369046,19.6973466591826,4.90442615111603,-0.00424537582114493,1,15.5,29.9
0.8,11.8013916822472,19.8607567661003,4.90018222584103,-0.00424392527500039,1,15.5,29.9
0.833333333333333,11.8014913844813,20.0240254314846,4.89593978696754,-0.00424243887348918,1,15.5,29.9
0.866666666666667,11.8015944124843,20.1871527053021,4.8916988600647,-0.00424092690284628,1,15.5,29.9
0.9,11.8017006966458,20.3501386382645,4.88745946338295,-0.00423939668174356,1,15.5,29.9
0.933333333333333,11.8018101489603,20.5129832816085,4.88322160993893,-0.00423785344401928,1,15.5,29.9
0.966666666666667,11.8019226812452,20.6756866869351,4.87898530897076,-0.00423630096817007,1,15.5,29.9
1,11.8020382186048,20.8382489060931,4.8747505669544,-0.00423474201636065,1,15.5,29.9
1.03333333333333,11.8021567067698,21.0006699910954,4.87051738832242,-0.00423317863198136,1,15.5,29.9
1.06666666666667,11.8022781134438,21.1629499940609,4.86628577598613,-0.00423161233628644,1,15.5,29.9
1.1,11.8024024249769,21.325088967174,4.86205573172842,-0.00423004425771545,1,15.5,29.9
1.13333333333333,11.8025296403388,21.4870869626582,4.85782725650849,-0.00422847521992953,1,15.5,29.9
1.16666666666667,11.8026597644596,21.6489440327574,4.8536003507017,-0.00422690580679141,1,15.5,29.9
1.2,11.8027928026191,21.8106602297247,4.8493750142865,-0.00422533641520051,1,15.5,29.9
1.23333333333333,11.8029287568863,21.9722356058134,4.84515124698536,-0.00422376730113427,1,15.5,29.9
1.26666666666667,11.8030676248627,22.1336702132703,4.84092904836491,-0.00422219862045559,1,15.5,29.9
1.3,11.8032094003431,22.2949641043297,4.83670841790075,-0.00422063046415388,1,15.5,29.9
1.33333333333333,11.8033540751165,22.456117331209,4.83248935501389,-0.00421906288686191,1,15.5,29.9
1.36666666666667,11.8035016410248,22.6171299461043,4.82827185908619,-0.00421749592770659,1,15.5,29.9
1.4,11.8036520915399,22.7780020011873,4.82405592946298,-0.00421592962320183,1,15.5,29.9
1.43333333333333,11.8038054224293,22.9387335486036,4.81984156545006,-0.00421436401292485,1,15.5,29.9
1.46666666666667,11.8039616314385,23.0993246404719,4.81562876631056,-0.00421279913949846,1,15.5,29.9
1.5,11.804120717221,23.259775328884,4.81141753126541,-0.00421123504514931,1,15.5,29.9
1.53333333333333,11.8042826779363,23.4200856659056,4.80720785949844,-0.00420967176697307,1,15.4972222222222,29.9
1.56666666666667,11.8044475099649,23.5802557035767,4.8029997501656,-0.00420810933283455,1,15.4888888888889,29.9
1.6,11.8046152071035,23.7402854939127,4.79879320240651,-0.00420654775909135,1,15.475,29.9
1.63333333333333,11.8047857604199,23.9001750889039,4.79458821535593,-0.00420498705058403,1,15.4555555555556,29.9
1.66666666666667,11.8049591587529,24.0599245405153,4.79038478815321,-0.00420342720271361,1,15.4305555555556,29.9
1.7,11.8051353896722,24.219533900686,4.78618291994835,-0.00420186820486546,1,15.4,29.9
1.73333333333333,11.805314440621,24.3790032213276,4.78198260990402,-0.00420031004432886,1,15.3666666666667,29.9
1.76666666666667,11.8054962999521,24.5383325543236,4.77778385719423,-0.00419875270979198,1,15.3333333333333,29.9
1.8,11.8056809576314,24.6975219515286,4.7735866610005,-0.00419719619372572,1,15.3,29.9
1.83333333333333,11.8058684054939,24.8565714647679,4.76939102050704,-0.00419564049345755,1,15.2666666666667,29.9
1.86666666666667,11.8060586370597,25.0154811458375,4.76519693489621,-0.00419408561083845,1,15.2333333333333,29.9
1.9,11.8062516470191,25.1742510465046,4.76100440334522,-0.00419253155098609,1,15.2,29.9
1.93333333333333,11.8064474305579,25.3328812185083,4.75681342502475,-0.00419097832047388,1,15.1666666666667,29.9
1.96666666666667,11.8066459827019,25.49137171356,4.75262399909918,-0.00418942592556526,1,15.1333333333333,29.9
2,11.8068472978275,25.6497225833446,4.74843612472834,-0.00418787437083878,1,15.1,29.9
2.03333333333333,11.8070513694183,25.8079338795199,4.74424980106992,-0.00418632365842075,1,15.0666666666667,29.9
2.06666666666667,11.8072581900803,25.9660056537175,4.74006502728197,-0.0041847737879479,1,15.0333333333333,29.9
2.1,11.8074677517597,26.1239379575419,4.73588180252493,-0.00418322475703903,1,15,29.9
2.13333333333333,11.8076800460744,26.2817308425707,4.73170012596277,-0.00418167656216539,1,14.9666666666667,29.9
2.16666666666667,11.8078950646558,26.4393843603541,4.72751999676324,-0.00418012919952826,1,14.9333333333333,29.9
2.2,11.8081127994171,26.5968985624144,4.72334141409736,-0.00417858266587956,1,14.9,29.9
2.23333333333333,11.8083332426958,26.7542735002463,4.71916437713837,-0.00417703695899441,1,14.8666666666667,29.9
2.26666666666667,11.8085563872607,26.9115092253163,4.71498888506055,-0.00417549207781587,1,14.8333333333333,29.9
2.3,11.8087822262075,27.0686057890632,4.71081493703824,-0.00417394802231286,1,14.8,29.9
2.33333333333333,11.8090107527905,27.2255632428984,4.70664253224513,-0.00417240479310355,1,14.7666666666667,29.9
2.36666666666667,11.809241960247,27.3823816382058,4.7024716698541,-0.00417086239103082,1,14.7333333333333,29.9
2.4,11.8094758416591,27.5390610263422,4.69830234903735,-0.00416932081675725,1,14.7,29.9
2.43333333333333,11.8097123898839,27.6956014586375,4.69413456896685,-0.00416778007049867,1,14.6666666666667,29.9
2.46666666666667,11.8099515975569,27.8520029863944,4.68996832881491,-0.00416624015193445,1,14.6333333333333,29.9
2.5,11.8101934571557,28.0082656608888,4.68580362775467,-0.00416470106024303,1,14.6,29.9
2.53333333333333,11.8104379610984,28.1643895333692,4.68164046496039,-0.00416316279427864,1,14.5666666666667,29.9
2.56666666666667,11.810685101844,28.3203746550571,4.67747883960762,-0.00416162535277476,1,14.5333333333333,29.9
2.6,11.8109348719704,28.4762210771463,4.67331875087308,-0.00416008873454032,1,14.5,29.9
2.63333333333333,11.8111872642124,28.6319288508035,4.66916019793447,-0.00415855293860812,1,14.4666666666667,29.9
2.66666666666667,11.8114422714568,28.7874980271678,4.6650031799702,-0.00415701796426848,1,14.4333333333333,29.9
2.7,11.8116998867028,28.9429286573513,4.66084769615913,-0.00415548381107023,1,14.4,29.9
2.73333333333333,11.8119601030023,29.0982207924384,4.65669374568041,-0.00415395047871492,1,14.3666666666667,29.9
2.76666666666667,11.8122229133986,29.2533744834869,4.65254132771345,-0.00415241796696986,1,14.3333333333333,29.9
2.8,11.8124883108787,29.4083897815272,4.6483904414379,-0.00415088627554816,1,14.3,29.9
2.83333333333333,11.8127562883494,29.5632667375631,4.64424108603384,-0.00414935540405637,1,14.2666666666667,29.9
2.86666666666667,11.813026838638,29.7180054025711,4.64009326068188,-0.00414782535195712,1,14.2333333333333,29.9
2.9,11.8132999545151,29.872605827501,4.6359469645633,-0.00414629611858075,1,14.2,29.9
2.93333333333333,11.8135761754632,30.0270680624001,4.63180220606796,-0.00414475849534757,1,14.1666666666667,29.9
2.96666666666667,11.8138584995531,30.1813921532638,4.62765900248735,-0.00414320358060838,1,14.1333333333333,29.9
3,11.8141521534668,30.335578142139,4.62351737745319,-0.00414162503415749,1,14.1,29.9
3.03333333333333,11.8144630517461,30.4896260692909,4.61937734734325,-0.00414003010994168,1,14.0666666666667,29.9
3.06666666666667,11.8147957103696,30.6435359763636,4.61523892804543,-0.00413841929782244,1,14.0333333333333,29.9
3.1,11.8151549525523,30.7973079032646,4.6111021556141,-0.0041367724313206,1,14,29.9
3.13333333333333,11.8155460582746,30.9509418874212,4.60696706564805,-0.00413508996605305,1,13.9666666666667,29.9
3.16666666666667,11.8159737216705,31.1044379651813,4.6028336414439,-0.00413342420414864,1,13.9333333333333,29.9
3.2,11.8164398816746,31.2577961760179,4.59870179796806,-0.00413184347583861,1,13.9,29.9
3.23333333333333,11.8169438489104,31.4110165634252,4.59457143738713,-0.00413036058093219,1,13.8666666666667,29.9
3.26666666666667,11.8174830984316,31.5640991747704,4.59044247710031,-0.00412896028682574,1,13.8333333333333,29.9
3.3,11.8180540094052,31.717044061002,4.58631486695384,-0.00412761014647067,1,13.8,29.9
3.33333333333333,11.8186524912656,31.8698512760952,4.58218859272207,-0.00412627423176737,1,13.7666666666667,29.9
3.36666666666667,11.8192744733592,32.0225208762214,4.5780636695466,-0.00412492317547031,1,13.7333333333333,29.9
3.4,11.8199162601466,32.1750529187288,4.57394013096523,-0.00412353858137227,1,13.7,29.9
3.43333333333333,11.820574766814,32.3274474610728,4.56981801807624,-0.00412211288898501,1,13.6666666666667,29.9
3.46666666666667,11.8212476536043,32.4797045598422,4.56569737127423,-0.0041206468020123,1,13.6333333333333,29.9
3.5,11.8219333754059,32.6318242699946,4.56157822517742,-0.00411914609680597,1,13.6,29.9
3.53333333333333,11.8226311600198,32.7838066443716,4.55746060630808,-0.00411761886934503,1,13.5666666666667,29.9
3.56666666666667,11.8233409267194,32.9356517335176,4.5533445326999,-0.00411607360817356,1,13.5333333333333,29.9
3.6,11.8240631572657,33.0873595857873,4.54923001461856,-0.00411451808134444,1,13.5,29.9
3.63333333333333,11.824798733998,33.238930247694,4.54511705576319,-0.00411295885537299,1,13.4666666666667,29.9
3.66666666666667,11.8255487625826,33.3903637644297,4.54100565454513,-0.00411140121805342,1,13.4333333333333,29.9
3.7,11.8263143988115,33.5416601804743,4.53689580526152,-0.0041098492836138,1,13.4,29.9
3.73333333333333,11.8270966982137,33.6928195402064,4.53278749916167,-0.00410830609984814,1,13.3666666666667,29.9
3.76666666666667,11.8278965036804,33.8438418884351,4.52868072550518,-0.00410677365649548,1,13.3333333333333,29.9
3.8,11.8287143802117,33.9947272707905,4.52457547270602,-0.00410525279915142,1,13.3,29.9
3.83333333333333,11.8295505984146,34.1454757339356,4.5204717295621,-0.00410374314392037,1,13.2666666666667,29.9
3.86666666666667,11.8304051610172,34.2960873255934,4.51636948644214,-0.00410224311996021,1,13.2333333333333,29.9
3.9,11.8312778608766,34.4465620944149,4.51226873621952,-0.00410075022262291,1,13.2,29.9
3.93333333333333,11.8321683557612,34.5969000897336,4.50816947475485,-0.00409926146466599,1,13.1666666666667,29.9
3.96666666666667,11.8330762449787,34.747101361268,4.50407170083451,-0.00409777392034538,1,13.1333333333333,29.9
4,11.8340011353844,34.8971659588308,4.49997541561946,-0.00409628521505034,1,13.1,29.9
4.03333333333333,11.834942688618,35.047093932091,4.49588062178225,-0.00409479383721045,1,13.0666666666667,29.9
4.06666666666667,11.8359006464518,35.1968853304192,4.4917873225633,-0.00409329921895285,1,13.0333333333333,29.9
4.1,11.8368748357675,35.3465402028219,4.48769552095455,-0.00409180160874278,1,13,29.9
4.13333333333333,11.8378651580628,35.4960585979532,4.48360521914337,-0.00409030181118109,1,12.9666666666667,29.9
4.16666666666667,11.838871570049,35.6454405641793,4.47951641825941,-0.00408880088396213,1,12.9333333333333,29.9
4.2,11.8398940618585,35.7946861496673,4.47542911839196,-0.00408729986744927,1,12.9,29.9
4.23333333333333,11.8409326379834,35.9437954024709,4.47134331879829,-0.00408579959366673,1,12.8666666666667,29.9
4.26666666666667,11.8419873039255,36.0927683705956,4.4672590182064,-0.00408430059189513,1,12.8333333333333,29.9
4.3,11.8430580593,36.2416051020353,4.463176215122,-0.00408280308439934,1,12.8,29.9
4.33333333333333,11.8441448963254,36.3903056447826,4.4590949080724,-0.00408130704960286,1,12.7666666666667,29.9
4.36666666666667,11.8452478015959,36.538870046823,4.45501509575089,-0.00407981232150156,1,12.7333333333333,29.9
4.4,11.8463667588171,36.6872983561229,4.45093677705783,-0.00407831869306019,1,12.7,29.9
4.43333333333333,11.8475017506739,36.8355906206231,4.44685995106043,-0.00407682599740689,1,12.6666666666667,29.9
4.46666666666667,11.8486527588733,36.9837468882433,4.44278461690888,-0.00407533415154493,1,12.6333333333333,29.9
4.5,11.8498197623669,37.1317672068978,4.43871077374858,-0.00407384316030157,1,12.6,29.9
4.53333333333333,11.851002734498,37.2796516245183,4.43463842065955,-0.00407235308903076,1,12.5666666666667,29.9
4.56666666666667,11.8522016401887,37.4274001890769,4.43056755663934,-0.00407086402021051,1,12.5333333333333,29.9
4.6,11.8534164342311,37.5750129486013,4.42649818062881,-0.0040693760105297,1,12.5,29.9
4.63333333333333,11.8546470613684,37.7224899511778,4.42243029156726,-0.0040678890615462,1,12.4666666666667,29.9
4.66666666666667,11.8558934582965,37.8698312449402,4.41836388845607,-0.00406640311119233,1,12.4333333333333,29.9
4.7,11.8571555571706,38.0170368780463,4.41429897040995,-0.00406491804612141,1,12.4,29.9
4.73333333333333,11.8584332898202,38.1641068986474,4.41023553668083,-0.00406343372911699,1,12.3666666666667,29.9
4.76666666666667,11.8597265917293,38.3110413548582,4.40617358664857,-0.00406195003225918,1,12.3333333333333,29.9
4.8,11.8610354049611,38.4578402947326,4.40211311978251,-0.00406046686606221,1,12.3,29.9
4.83333333333333,11.862359679515,38.6045037662504,4.39805413558538,-0.00405898419713235,1,12.2666666666667,29.9
4.86666666666667,11.8636993730072,38.7510318173169,4.39399663353452,-0.00405750205085909,1,12.2333333333333,29.9
4.9,11.8650544489563,38.8974244957738,4.38994061303444,-0.00405602050007925,1,12.2,29.9
4.93333333333333,11.8664248742254,39.0436818494172,4.38588607339038,-0.00405453964406011,1,12.1666666666667,29.9
4.96666666666667,11.8678106162847,39.1898039260189,4.38183301380635,-0.00405305958403002,1,12.1333333333333,29.9
5,11.8692116408987,39.335790773345,4.37778143340489,-0.00405158040146247,1,12.1,29.9
5.03333333333333,11.8706279106532,39.4816424391689,4.3737313312611,-0.00405010214379065,1,12.0666666666667,29.9
5.06666666666667,11.8720593844813,39.6273589712767,4.36968270644122,-0.004048624819875,1,12.0333333333333,29.9
