Time,x_ego,y_ego,velocity,acceleration,action,x_ped,y_ped
0,11.8,15.9,7,0,1,15.5,29.9
0.0333333333333333,11.8,16.1332703793943,6.99615577953002,-0.00384422046998356,1,15.5,29.9
0.0666666666666667,11.8,16.3664065988113,6.99196947109348,-0.00418630843653833,1,15.5,29.9
0.1,11.8,16.5994007552791,6.98769498718995,-0.00427448390352669,1,15.5,29.9
0.133333333333333,11.8,16.8322537852842,6.9834976545359,-0.00419733265404787,1,15.5,29.9
0.166666666666667,11.8,17.0649678802301,6.97935585456763,-0.00414179996826913,1,15.5,29.9
0.2,11.8,17.2975446186632,6.97525409491249,-0.00410175965514537,1,15.5,29.9
0.233333333333333,11.8,17.5299851399444,6.97118127319767,-0.00407282171482137,1,15.5,29.9
0.266666666666667,11.8,17.7622902687052,6.96712943294736,-0.00405184025031069,1,15.5,29.9
0.3,11.8,17.9944606040335,6.96309287213007,-0.00403656081728965,1,15.5,29.9
0.333333333333333,11.8,18.2264965833863,6.95906750439986,-0.00402536773020401,1,15.5,29.9
0.366666666666667,11.8,18.4583985283897,6.95505040137947,-0.00401710302039238,1,15.5,29.9
0.4,11.8,18.6901666776599,6.95103946463339,-0.00401093674607722,1,15.5,29.9
0.433333333333333,11.8,18.9218012103233,6.94703319054231,-0.00400627409108711,1,15.5,29.9
0.466666666666667,11.8,19.1533022628712,6.94303050173604,-0.00400268880626342,1,15.5,29.9
0.5,11.8,19.3846699412377,6.93903062623031,-0.00399987550573222,1,15.5,29.9
0.533333333333333,11.8,19.6159043294559,6.93503301077307,-0.00399761545723631,1,15.5,29.9
0.566666666666667,11.8,19.8470054958598,6.93103725873891,-0.00399575203416092,1,15.5,29.9
0.6,11.8,20.0779734975296,6.92704308564579,-0.003994173093127,1,15.5,29.9
0.633333333333333,11.8000033033681,20.3088083834729,6.92305029277889,-0.0039927928668968,1,15.5,29.9
0.666666666666667,11.8000239909451,20.5395101967686,6.91905877760124,-0.00399151517765262,1,15.5,29.9
0.7,11.800074133383,20.7700789754922,6.91506849422891,-0.00399028337232643,1,15.5,29.9
0.733333333333333,11.8001639756833,21.0005147527061,6.91107941806142,-0.00398907616748634,1,15.5,29.9
0.766666666666667,11.800301967817,21.2308175561529,6.90709148881082,-0.00398792925060576,1,15.5,29.9
0.8,11.8004929036331,21.460987408637,6.90310463091043,-0.00398685790038922,1,15.5,29.9
0.833333333333333,11.800740577925,21.691024328539,6.89911876463887,-0.00398586627155595,1,15.5,29.9
0.866666666666667,11.8010460198325,21.9209283316025,6.89513377606636,-0.00398498857251717,1,15.5,29.9
0.9,11.8014079423425,22.1506994330797,6.89114958321306,-0.00398419285329865,1,15.5,29.9
0.933333333333333,11.8018237814903,22.3803376493792,6.8871661441491,-0.00398343906395748,1,15.5,29.9
0.966666666666667,11.802290400061,22.6098429990246,6.8831834494253,-0.00398269472380264,1,15.5,29.9
1,11.8028045289225,22.8392155029418,6.87920150906313,-0.00398194036216637,1,15.5,29.9
1.03333333333333,11.8033630322473,23.0684551842482,6.875220341256,-0.00398116780713487,1,15.5,29.9
1.06666666666667,11.8039630697399,23.2975620677442,6.87123996541224,-0.00398037584375288,1,15.5,29.9
1.1,11.8046022036691,23.5265361792732,6.86726039913741,-0.00397956627483076,1,15.5,29.9
1.13333333333333,11.8052784726673,23.7553775450689,6.86328165759973,-0.00397874153768285,1,15.5,29.9
1.16666666666667,11.805990435392,23.984086191173,6.85930375379846,-0.0039779038012675,1,15.5,29.9
1.2,11.8067363908603,24.2126621447471,6.8553266273753,-0.00397712642316606,1,15.5,29.9
1.23333333333333,11.8075117306108,24.4411054406733,6.85135019652327,-0.00397643085202581,1,15.5,29.9
1.26666666666667,11.8083094014702,24.6694161226338,6.84737445074584,-0.00397574577743409,1,15.5,29.9
1.3,11.8091219459103,24.8975942391894,6.84339949494083,-0.00397495580500529,1,15.5,29.9
1.33333333333333,11.8099442751224,25.1256398356824,6.83942539894861,-0.00397409599222254,1,15.5,29.9
1.36666666666667,11.8107716763585,25.353552957993,6.835452210823,-0.00397318812560776,1,15.5,29.9
1.4,11.8116019323259,25.5813336453809,6.8314799819628,-0.00397222886020199,1,15.5,29.9
1.43333333333333,11.8124350474432,25.8089819298553,6.82750871278315,-0.00397126917965362,1,15.5,29.9
1.46666666666667,11.813272271894,26.036497838435,6.82353838232494,-0.00397033045820994,1,15.5,29.9
1.5,11.814115416454,26.2638813951922,6.8195689659621,-0.00396941636283277,1,15.5,29.9
1.53333333333333,11.814966435813,26.4911326227391,6.81560044283033,-0.00396852313177121,1,15.4972222222222,29.9
1.56666666666667,11.8158272146313,26.7182515431325,6.81163279748308,-0.00396764534724703,1,15.4888888888889,29.9
1.6,11.816699478719,26.9452381783528,6.80766601926033,-0.00396677822275748,1,15.475,29.9
1.63333333333333,11.8175839414158,27.1720925534406,6.80370007230544,-0.00396594695488872,1,15.4555555555556,29.9
1.66666666666667,11.8184776356891,27.3988147063799,6.79973491882055,-0.00396515348489057,1,15.4305555555556,29.9
1.7,11.8193755056878,27.625404683439,6.7957705796837,-0.0039643391368509,1,15.4,29.9
1.73333333333333,11.8202733793135,27.8518625287075,6.79180707341412,-0.00396350626957531,1,15.3666666666667,29.9
1.76666666666667,11.8211653895436,28.078188293194,6.78784440837145,-0.00396266504267206,1,15.3333333333333,29.9
1.8,11.8220441543818,28.3043820340516,6.78388261479983,-0.00396179357161941,1,15.3,29.9
1.83333333333333,11.8229016514102,28.5304438108023,6.77992173179484,-0.00396088300498931,1,15.2666666666667,29.9
1.86666666666667,11.8237304035517,28.7563736800317,6.7759617898781,-0.00395994191674554,1,15.2333333333333,29.9
1.9,11.8245264988447,28.9821716833205,6.77200277400723,-0.00395901587086644,1,15.2,29.9
1.93333333333333,11.8252891532421,29.2078378489164,6.76804463960813,-0.00395813439910242,1,15.1666666666667,29.9
1.96666666666667,11.8260195259549,29.433372196889,6.76408734335033,-0.00395729625779584,1,15.1333333333333,29.9
2,11.8267198373819,29.6587747432843,6.76013085753988,-0.00395648581045105,1,15.1,29.9
2.03333333333333,11.8273927750666,29.8840455029795,6.75617517109593,-0.00395568644395006,1,15.0666666666667,29.9
2.06666666666667,11.8280411253824,30.1091844913616,6.7522202843869,-0.00395488670902999,1,15.0333333333333,29.9
2.1,11.828667555665,30.334191725163,6.74826620344477,-0.00395408094212701,1,15,29.9
2.13333333333333,11.8292744822409,30.5590672227926,6.74431293597341,-0.00395326747135982,1,14.9666666666667,29.9
2.16666666666667,11.8298639820172,30.7838110044193,6.74036048937745,-0.00395244659596372,1,14.9333333333333,29.9
2.2,11.8304377285375,31.0084230919458,6.73640887012505,-0.0039516192523994,1,14.9,29.9
2.23333333333333,11.8309969507363,31.2329035089251,6.7324580836898,-0.00395078643524638,1,14.8666666666667,29.9
2.26666666666667,11.8315432357895,31.457252278064,6.72850810191642,-0.00394998177338657,1,14.8333333333333,29.9
2.3,11.8320811824711,31.68146941507,6.72455902453884,-0.00394907737757944,1,14.8,29.9
2.33333333333333,11.8326168724152,31.9055549435147,6.72061140343918,-0.00394762109965896,1,14.7666666666667,29.9
2.36666666666667,11.8331541322308,32.1295089150006,6.71666597621302,-0.00394542722615387,1,14.7333333333333,29.9
2.4,11.833695217166,32.3533314077573,6.7127233287829,-0.00394264743012052,1,14.7,29.9
2.43333333333333,11.8342435192352,32.5770225125162,6.70878382203512,-0.00393950674778143,1,14.6666666666667,29.9
2.46666666666667,11.8348010148775,32.8005823326908,6.70484766558153,-0.00393615645358736,1,14.6333333333333,29.9
2.5,11.835367966373,33.0240109807349,6.70091495578956,-0.00393270979197702,1,14.6,29.9
2.53333333333333,11.8359435875028,33.2473085738075,6.6969857252811,-0.00392923050845617,1,14.5666666666667,29.9
2.56666666666667,11.8365265720214,33.4704752310042,6.69305997439278,-0.00392575088831659,1,14.5333333333333,29.9
2.6,11.8371154369899,33.6935110716542,6.68913767415467,-0.00392230023811457,1,14.5,29.9
2.63333333333333,11.8377087166457,33.9164162122371,6.68521866027906,-0.00391901387560978,1,14.4666666666667,29.9
2.66666666666667,11.838305056041,34.1391907621868,6.68130272949633,-0.00391593078273189,1,14.4333333333333,29.9
2.7,11.8389040596136,34.3618348234469,6.67738978826075,-0.00391294123558072,1,14.4,29.9
2.73333333333333,11.8395081557092,34.5843484885447,6.6734798141035,-0.00390997415724925,1,14.3666666666667,29.9
2.76666666666667,11.8401200529412,34.8067318489996,6.66957282485618,-0.00390698924732114,1,14.3333333333333,29.9
2.8,11.8407454354167,35.0289849888888,6.66566887822232,-0.00390394663385507,1,14.3,29.9
2.83333333333333,11.8413945897894,35.2511079803266,6.66176806162824,-0.00390081659408192,1,14.2666666666667,29.9
2.86666666666667,11.8420783079159,35.4731008934879,6.657870462824,-0.00389759880424201,1,14.2333333333333,29.9
2.9,11.8428065184524,35.6949637990051,6.65397615367081,-0.00389430915318556,1,14.2,29.9
2.93333333333333,11.843587267805,35.9166967696236,6.65008513402065,-0.00389101965016181,1,14.1666666666667,29.9
2.96666666666667,11.8444242802241,36.1382998871055,6.64619732227364,-0.00388781174701158,1,14.1333333333333,29.9
3,11.8453177605653,36.3597732415539,6.64231262945182,-0.00388469282182324,1,14.1,29.9
3.03333333333333,11.8462657977075,36.5811169293744,6.6384309945805,-0.00388163487131443,1,14.0666666666667,29.9
3.06666666666667,11.8472653847544,36.8023310519028,6.63455239387307,-0.0038786007074334,1,14.0333333333333,29.9
3.1,11.8483130859198,37.0234157144931,6.63067685837401,-0.00387553549905473,1,14,29.9
3.13333333333333,11.8494054348557,37.2443710295744,6.62680466914962,-0.00387218922439647,1,13.9666666666667,29.9
3.16666666666667,11.8505391612968,37.4651971225191,6.62293617614011,-0.00386849300950587,1,13.9333333333333,29.9
3.2,11.8517113262275,37.6858941271589,6.61907153069788,-0.0038646454422322,1,13.9,29.9
3.23333333333333,11.8529194158824,37.9064621793355,6.61521077710342,-0.00386075359446103,1,13.8666666666667,29.9
3.26666666666667,11.8541614146894,38.1269014167398,6.61135411638277,-0.00385666072064428,1,13.8333333333333,29.9
3.3,11.8554358553837,38.3472119832156,6.60750178033362,-0.00385233604914959,1,13.8,29.9
3.33333333333333,11.8567418344794,38.5673940242914,6.60365380222954,-0.00384797810408521,1,13.7666666666667,29.9
3.36666666666667,11.8580789823787,38.7874476815036,6.59981009445156,-0.00384370777798271,1,13.7333333333333,29.9
3.4,11.8594473856581,39.0073730897206,6.59597051365724,-0.00383958079431945,1,13.7,29.9
3.43333333333333,11.8608474698216,39.227170376445,6.59213489793378,-0.00383561572345492,1,13.6666666666667,29.9
3.46666666666667,11.8622798598052,39.4468396622736,6.58830308692992,-0.00383181100386398,1,13.6333333333333,29.9
