Time,x_ego,y_ego,velocity,acceleration,action,x_ped,y_ped
0,11.8,8.9,5,0,1,15.5,29.9
0.0333333333333333,11.8,9.06660768884189,4.99642261439338,-0.0035773856066168,1,15.5,29.9
0.0666666666666667,11.8,9.23309265311448,4.99264756783477,-0.00377504655861216,1,15.5,29.9
0.1,11.8,9.39944929692399,4.98873130122091,-0.00391626661385835,1,15.5,29.9
0.133333333333333,11.79999519021,9.56567326118445,4.9846924861805,-0.00403881504041692,1,15.5,29.9
0.166666666666667,11.7999643302447,9.73176133343977,4.98058207197487,-0.00411041420562874,1,15.5,29.9
0.2,11.7998890612384,9.89768278226797,4.9746989269386,-0.00588314503627085,1,15.5,29.9
0.233333333333333,11.7997588079753,10.0633784008391,4.96703645644259,-0.00766247049600466,1,15.5,29.9
0.266666666666667,11.7995694443202,10.2288181130841,4.95934949033156,-0.00768696611103081,1,15.5,29.9
0.3,11.7993216459868,10.3940012165105,4.95164564583846,-0.00770384449309969,1,15.5,29.9
0.333333333333333,11.7990192699218,10.5589562957054,4.94567424210822,-0.00597140373023652,1,15.5,29.9
0.366666666666667,11.7986679913637,10.7237120911135,4.93969499079444,-0.00597925131378396,1,15.5,29.9
0.4,11.7982742715817,10.8882683898503,4.93371062014745,-0.00598437064699198,1,15.5,29.9
0.433333333333333,11.7978445870386,11.0526537648289,4.92944524473857,-0.00426537540887484,1,15.5,29.9
0.466666666666667,11.7973849572986,11.2168968444335,4.92517796907344,-0.00426727566512941,1,15.5,29.9
0.5,11.7969006538658,11.3809975927431,4.92090978110174,-0.00426818797170103,1,15.5,29.9
0.533333333333333,11.7963959700545,11.5449560015814,4.91664140939906,-0.00426837170268257,1,15.5,29.9
0.566666666666667,11.7958740917132,11.7087720816948,4.91237338825028,-0.00426802114877933,1,15.5,29.9
0.6,11.7953370368179,11.872446219552,4.90812790537658,-0.00424548287370285,1,15.5,29.9
0.633333333333333,11.7947856732957,12.0359788092759,4.90388343852817,-0.0042444668484114,1,15.5,29.9
0.666666666666667,11.7942198236355,12.1993698861117,4.89964018471881,-0.00424325380936175,1,15.5,29.9
0.7,11.7936384549373,12.3626194877441,4.8953982802116,-0.00424190450720197,1,15.5,29.9
0.733333333333333,11.7930399403143,12.5257276531785,4.89115781602557,-0.00424046418603563,1,15.5,29.9
0.766666666666667,11.7924223595526,12.6886944222922,4.88691884978065,-0.00423896624491871,1,15.5,29.9
0.8,11.7917837978432,12.8515198358388,4.88268141469617,-0.00423743508448027,1,15.5,29.9
0.833333333333333,11.7911226007767,13.0142039357038,4.87844552647241,-0.00423588822376164,1,15.5,29.9
0.866666666666667,11.7904375524304,13.1767467652273,4.87421118879726,-0.00423433767514769,1,15.5,29.9
0.9,11.7897279588492,13.3391483694481,4.86997839808984,-0.00423279070742399,1,15.5,29.9
0.933333333333333,11.7889936374646,13.501408795171,4.86574714774498,-0.00423125034485228,1,15.5,29.9
0.966666666666667,11.7882348296001,13.6635280908241,4.8615174317235,-0.00422971602147992,1,15.5,29.9
1,11.7874520646224,13.8255063061307,4.85728924708342,-0.00422818464008401,1,15.5,29.9
1.03333333333333,11.7866460085748,13.9873434916646,4.85306259511201,-0.00422665197140493,1,15.5,29.9
1.06666666666667,11.7858173272413,14.1490396983796,4.84883748104032,-0.00422511407169601,1,15.5,29.9
1.1,11.7849665851615,14.3105949771988,4.84461391269996,-0.00422356834035753,1,15.5,29.9
1.13333333333333,11.7840941907896,14.4720093787266,4.84039189871352,-0.00422201398643729,1,15.5,29.9
1.16666666666667,11.7832003866873,14.6332829531096,4.83617144680753,-0.00422045190599452,1,15.5,29.9
1.2,11.7822852747831,14.7944157500387,4.8319525626511,-0.00421888415642702,1,15.5,29.9
1.23333333333333,11.78134886182,14.9554078188534,4.82773524937221,-0.00421731327889319,1,15.5,29.9
1.26666666666667,11.7803911094636,15.1162592086963,4.82351950769181,-0.00421574168040184,1,15.5,29.9
1.3,11.7794119764657,15.2769699686648,4.81930533649124,-0.00421417120057122,1,15.5,29.9
1.33333333333333,11.7784114453824,15.4375401479187,4.81509273358504,-0.00421260290619241,1,15.5,29.9
1.36666666666667,11.7773895320006,15.5979697957252,4.81088169648566,-0.00421103709938375,1,15.5,29.9
1.4,11.7763462803993,15.758258961443,4.80667222299607,-0.00420947348958922,1,15.5,29.9
1.43333333333333,11.7752817495025,15.9184076944647,4.80246431153785,-0.00420791145821919,1,15.5,29.9
1.46666666666667,11.7741959977623,16.0784160441467,4.79825796120093,-0.00420635033692029,1,15.5,29.9
1.5,11.7730890714953,16.2382840597512,4.79405317157156,-0.00420478962936599,1,15.5,29.9
1.53333333333333,11.7719610000751,16.3980117904224,4.78984994243971,-0.00420322913185078,1,15.4972222222222,29.9
1.56666666666667,11.7708117984868,16.5575992852,4.78564827349759,-0.0042016689421267,1,15.4888888888889,29.9
1.6,11.7696414754577,16.7170465930662,4.78144816412018,-0.00420010937740312,1,15.475,29.9
1.63333333333333,11.7684500440128,16.8763537630087,4.77724961327792,-0.00419855084226217,1,15.4555555555556,29.9
1.66666666666667,11.7672375310446,17.035520844083,4.773052619586,-0.00419699369192639,1,15.4305555555556,29.9
1.7,11.7660039832139,17.1945478854547,4.76885718145711,-0.00419543812888623,1,15.4,29.9
1.73333333333333,11.7647494678385,17.3534349364117,4.76466329730175,-0.00419388415535948,1,15.3666666666667,29.9
1.76666666666667,11.7634740689356,17.5121820463458,4.76047096571551,-0.00419233158623999,1,15.3333333333333,29.9
1.8,11.7621778798311,17.6707892647083,4.75628018560455,-0.00419078011096374,1,15.3,29.9
1.83333333333333,11.7608609944579,17.8292566409539,4.75209095622283,-0.00418922938171296,1,15.2666666666667,29.9
1.86666666666667,11.7595234995292,17.987584224485,4.74790327712138,-0.00418767910145768,1,15.2333333333333,29.9
1.9,11.7581654692835,18.1457720646117,4.74371714803235,-0.00418612908902194,1,15.2,29.9
1.93333333333333,11.7567869636508,18.303820210533,4.73953256872475,-0.00418457930760674,1,15.1666666666667,29.9
1.96666666666667,11.7553880297601,18.4617287113423,4.73534953887012,-0.00418302985462926,1,15.1333333333333,29.9
2,11.7539687059349,18.6194976160516,4.7311680579491,-0.00418148092101678,1,15.1,29.9
2.03333333333333,11.7525290268717,18.7771269736276,4.72698812521471,-0.0041799327343881,1,15.0666666666667,29.9
2.06666666666667,11.7510690286303,18.9346168330289,4.72280973971252,-0.00417838550219596,1,15.0333333333333,29.9
2.1,11.7495887523353,19.0919672432351,4.71863290034423,-0.0041768393682915,1,15,29.9
2.13333333333333,11.7480882459757,19.2491782532637,4.71445760595316,-0.00417529439106445,1,14.9666666666667,29.9
2.16666666666667,11.7465675642454,19.4062499121712,4.71028385540829,-0.0041737505448749,1,14.9333333333333,29.9
2.2,11.7450267668367,19.5631822690414,4.70611164766753,-0.004172207740754,1,14.9,29.9
2.23333333333333,11.7434659158923,19.719975372967,4.70194098180916,-0.00417066585837489,1,14.8666666666667,29.9
2.26666666666667,11.7418850733928,19.8766292730276,4.69777185702931,-0.00416912477984965,1,14.8333333333333,29.9
2.3,11.7402842991254,20.0331440182725,4.69360427261237,-0.00416758441694132,1,14.8,29.9
2.33333333333333,11.7386636496181,20.1895196577112,4.68943822788605,-0.00416604472631388,1,14.7666666666667,29.9
2.36666666666667,11.7370231781154,20.3457562403113,4.68527372217487,-0.00416450571118521,1,14.7333333333333,29.9
2.4,11.7353629353971,20.5018538150054,4.68111075476347,-0.0041629674113981,1,14.7,29.9
2.43333333333333,11.7336829710719,20.6578124307021,4.67694932487703,-0.00416142988643919,1,14.6666666666667,29.9
2.46666666666667,11.731983334923,20.8136321362976,4.67278943168033,-0.00415989319669485,1,14.6333333333333,29.9
2.5,11.7302640779496,20.9693129806859,4.66863107429234,-0.00415835738799686,1,14.6,29.9
2.53333333333333,11.7285252528865,21.1248550127641,4.66447425180982,-0.00415682248251947,1,14.5666666666667,29.9
2.56666666666667,11.7267669141584,21.2802582814324,4.66031896333255,-0.00415528847727131,1,14.5333333333333,29.9
2.6,11.7249891173759,21.4355228355898,4.65616520798342,-0.00415375534913043,1,14.5,29.9
2.63333333333333,11.7231919185779,21.5906487241267,4.6520129849193,-0.00415222306411422,1,14.4666666666667,29.9
2.66666666666667,11.7213753734596,21.7456359959174,4.64786229333155,-0.0041506915877525,1,14.4333333333333,29.9
2.7,11.7195401423551,21.9004265714177,4.64022530933899,-0.00763698399255652,1,14.4,29.9
2.73333333333333,11.7176881185195,22.0548472148412,4.62568013360865,-0.0145451757303467,1,14.3666666666667,29.9
2.76666666666667,11.7158209571694,22.2087537867314,4.60939436250256,-0.0162857711060882,1,14.3333333333333,29.9
2.8,11.713940096333,22.3620308824608,4.58792460835514,-0.0214697541474189,3,14.3,29.9
2.83333333333333,11.7120505249801,22.5142463372925,4.54570775634072,-0.0422168520144215,3,14.2666666666667,29.9
2.86666666666667,11.7101590280701,22.6648238502451,4.48965787138955,-0.0560498849511726,3,14.2333333333333,29.9
2.9,11.7082717488979,22.8132737138625,4.41805668079288,-0.0716011905966702,3,14.2,29.9
2.93333333333333,11.7063938448719,22.9592218907179,4.33956279351909,-0.078493887273785,3,14.1666666666667,29.9
2.96666666666667,11.7045297973527,23.1023805751021,4.25069186658173,-0.0888709269373651,3,14.1333333333333,29.9
3,11.7026856773318,23.2423469169198,4.14802515694715,-0.102666709634572,3,14.1,29.9
3.03333333333333,11.7008695170943,23.3785743327272,4.02635686872705,-0.121668288220108,3,14.0666666666667,29.9
3.06666666666667,11.6990882966798,23.510631197665,3.89779044536953,-0.12856642335752,3,14.0333333333333,29.9
3.1,11.6973458222118,23.6383744878022,3.76753942548864,-0.130251019880887,3,14,29.9
3.13333333333333,11.6956446390124,23.7617768099909,3.63732819451218,-0.130211230976462,3,13.9666666666667,29.9
3.16666666666667,11.6939869677677,23.88083954035,3.50715802554607,-0.130170168966109,3,13.9333333333333,29.9
3.2,11.6923753266239,23.9955353998517,3.37530747234386,-0.131850553202209,3,13.9,29.9
3.23333333333333,11.6908135652549,24.105721614789,3.23656716776266,-0.138740304581197,3,13.8666666666667,29.9
3.26666666666667,11.6893065124018,24.2111689871587,3.09096017187734,-0.14560699588532,3,13.8333333333333,29.9
3.3,11.6878585531018,24.3116774322365,2.94021019946724,-0.150749972410098,3,13.8,29.9
3.33333333333333,11.6864736404834,24.4070756152656,2.78431889135093,-0.15589130811631,3,13.7666666666667,29.9
3.36666666666667,11.6851556767423,24.497191885637,2.62326618216996,-0.161052709180969,3,13.7333333333333,29.9
3.4,11.6839089018226,24.5818259387632,2.45535350529599,-0.167912676873971,3,13.7,29.9
3.43333333333333,11.6827375375991,24.6607778824132,2.28230490372328,-0.173048601572712,3,13.6666666666667,29.9
3.46666666666667,11.6816453691121,24.7338779579897,2.10432042848546,-0.177984475237821,3,13.6333333333333,29.9
3.5,11.6806361409784,24.8009541327713,1.92113346694993,-0.183186961535533,3,13.6,29.9
3.53333333333333,11.6797124818137,24.8619134504053,1.73735654460717,-0.183776922342756,3,13.5666666666667,29.9
3.56666666666667,11.6788762715,24.9167129471533,1.55153298987041,-0.185823554736755,3,13.5333333333333,29.9
3.6,11.6781299772594,24.9652578719782,1.36206392253479,-0.189469067335626,3,13.5,29.9
3.63333333333333,11.6774759066751,25.0074577027887,1.17080363879273,-0.191260283742061,3,13.4666666666667,29.9
3.66666666666667,11.6769162133968,25.0432255444613,0.976134088253676,-0.194669550539052,3,13.4333333333333,29.9
3.7,11.6764524639351,25.0725097001052,0.781792034841143,-0.194342053412533,3,13.4,29.9
3.73333333333333,11.6760852216754,25.0953237961428,0.587883106302913,-0.193908928538231,3,13.3666666666667,29.9
3.76666666666667,11.6758145012328,25.111712086728,0.396232935712192,-0.19165017059072,3,13.3333333333333,29.9
3.8,11.6756393303611,25.1217810753807,0.208683998210088,-0.187548937502104,3,13.3,29.9
3.83333333333333,11.6755581679979,25.1256681940728,0.0253450718462712,-0.183338926363817,3,13.2666666666667,29.9
3.86666666666667,11.6755616400578,25.1240774276724,0.0719528320208642,0.046607760174593,4,13.2333333333333,29.9
3.9,11.6755851153425,25.1216792292181,0.00113539565613193,-0.0708174363647323,3,13.2,29.9
3.93333333333333,11.6755851153425,25.1216792292181,0.00243570588324398,0.00130031022711204,5,13.1666666666667,29.9
3.96666666666667,11.6755851153425,25.1216792292181,0.00446643360489937,0.0020307277216554,5,13.1333333333333,29.9
4,11.6755851153425,25.1216792292181,0.00704312651146919,0.00257669290656982,5,13.1,29.9
4.03333333333333,11.6755851153425,25.1216792292181,0.00990832777456967,0.00286520126310047,5,13.0666666666667,29.9
4.06666666666667,11.6755851153425,25.1216792292181,0.0127704725263337,0.00286214475176399,5,13.0333333333333,29.9
4.1,11.6755851153425,25.1216792292181,0.0153399042634924,0.00256943173715877,5,13,29.9
4.13333333333333,11.6755851153425,25.1216792292181,0.0173593899278704,0.00201948566437797,5,12.9666666666667,29.9
4.16666666666667,11.6755851153425,25.1216792292181,0.0186273889215253,0.00126799899365487,5,12.9333333333333,29.9
4.2,11.6755851153425,25.1216792292181,0.0190131956997349,0.000385806778209621,5,12.9,29.9
4.23333333333333,11.6755851153425,25.1216792292181,0.0184638657201853,-0.000549329979549644,5,12.8666666666667,29.9
4.26666666666667,11.6755851153425,25.1216792292181,0.0170035040535136,-0.00146036166667169,5,12.8333333333333,29.9
4.3,11.6755851153425,25.1216792292181,0.014726014932893,-0.00227748912062053,5,12.8,29.9
4.33333333333333,11.6755851153425,25.1216792292181,0.0117827647964558,-0.00294325013643718,5,12.7666666666667,29.9
4.36666666666667,11.6755851153425,25.1216792292181,0.00836680100867214,-0.00341596378778371,5,12.7333333333333,29.9
4.4,11.6755851153425,25.1216792292181,0.00469530535126888,-0.00367149565740326,5,12.7,29.9
4.43333333333333,11.6755851153425,25.1216792292181,0.000991866556474888,-0.00370343879479399,5,12.6666666666667,29.9
4.46666666666667,11.6755851153425,25.1216792292181,0.00253004324144799,0.0015381766849731,5,12.6333333333333,29.9
4.5,11.6755851153425,25.1216792292181,0.00568127685361779,0.0031512336121698,5,12.6,29.9
4.53333333333333,11.6755851153425,25.1216792292181,0.00830811072181415,0.00262683386819636,5,12.5666666666667,29.9
4.56666666666667,11.6755851153425,25.1216792292181,0.010299770245633,0.0019916595238189,5,12.5333333333333,29.9
4.6,11.6755851153425,25.1216792292181,0.0115922369504553,0.00129246670482225,5,12.5,29.9
4.63333333333333,11.6755851153425,25.1216792292181,0.0121684786426419,0.000576241692186636,5,12.4666666666667,29.9
4.66666666666667,11.6755851153425,25.1216792292181,0.0120554810953543,-0.000112997547287646,5,12.4333333333333,29.9
4.7,11.6755851153425,25.1216792292181,0.0113186387714516,-0.000736842323902739,5,12.4,29.9
4.73333333333333,11.6755851153425,25.1216792292181,0.0100541782692703,-0.00126446050218123,5,12.3666666666667,29.9
4.76666666666667,11.6755851153425,25.1216792292181,0.00838034222035466,-0.00167383604891565,5,12.3333333333333,29.9
4.8,11.6755851153425,25.1216792292181,0.00642805812528174,-0.00195228409507292,5,12.3,29.9
4.83333333333333,11.6755851153425,25.1216792292181,0.00433176417726431,-0.00209629394801743,5,12.2666666666667,29.9
4.86666666666667,11.6755851153425,25.1216792292181,0.00222097279511319,-0.00211079138215112,5,12.2333333333333,29.9
4.9,11.6755851153425,25.1216792292181,0.00021303385228667,-0.00200793894282652,5,12.2,29.9
4.93333333333333,11.6755851153425,25.1216792292181,0.00159257483617984,0.00137954098389317,5,12.1666666666667,29.9
4.96666666666667,11.6755851153425,25.1216792292181,0.00311824119740564,0.00152566636122579,5,12.1333333333333,29.9
5,11.6755851153425,25.1216792292181,0.00431044186749076,0.00119220067008512,5,12.1,29.9
5.03333333333333,11.6755851153425,25.1216792292181,0.00514025979094297,0.000829817923452211,5,12.0666666666667,29.9
5.06666666666667,11.6755851153425,25.1216792292181,0.00560236247585176,0.000462102684908784,5,12.0333333333333,29.9
5.1,11.6755851153425,25.1216792292181,0.00571268406007588,0.000110321584224122,5,12,29.9
5.13333333333333,11.6755851153425,25.1216792292181,0.00550510605121094,-0.000207578008864936,5,11.9666666666667,29.9
5.16666666666667,11.6755851153425,25.1216792292181,0.00502745792268941,-0.000477648128521533,5,11.9333333333333,29.9
5.2,11.6755851153425,25.1216792292181,0.00433716136099418,-0.000690296561695234,5,11.9,29.9
5.23333333333333,11.6755851153425,25.1216792292181,0.00349682384697863,-0.000840337514015541,5,11.8666666666667,29.9
5.26666666666667,11.6755851153425,25.1216792292181,0.00257005232366494,-0.000926771523313697,5,11.8333333333333,29.9
5.3,11.6755851153425,25.1216792292181,0.00161771040043835,-0.000952341923226592,5,11.8,29.9
5.33333333333333,11.6755851153425,25.1216792292181,0.000694787494581733,-0.000922922905856613,5,11.7666666666667,29.9
5.36666666666667,11.6755851153425,25.1216792292181,0.000152010001949556,-0.000542777492632177,5,11.7333333333333,29.9
5.4,11.6755851153425,25.1216792292181,0.000885892945900305,0.000733882943950749,5,11.7,29.9
5.43333333333333,11.6755851153425,25.1216792292181,0.00148084970121803,0.000594956755317722,5,11.6666666666667,29.9
5.46666666666667,11.6755851153425,25.1216792292181,0.0019217793128845,0.000440929611666476,5,11.6333333333333,29.9
5.5,11.6755851153425,25.1216792292181,0.00220398180661243,0.000282202493727923,5,11.6,29.9
5.53333333333333,11.6755851153425,25.1216792292181,0.00233211715607989,0.000128135349467466,5,11.5666666666667,29.9
5.56666666666667,11.6755851153425,25.1216792292181,0.00231876146679253,-1.33556892873651e-05,5,11.5333333333333,29.9
5.6,11.6755851153425,25.1216792292181,0.00218269596651249,-0.00013606550028004,5,11.5,29.9
5.63333333333333,11.6755851153425,25.1216792292181,0.00194706238709537,-0.000235633579417112,5,11.4666666666667,29.9
5.66666666666667,11.6755851153425,25.1216792292181,0.00163750861918867,-0.000309553767906705,5,11.4333333333333,29.9
5.7,11.6755851153425,25.1216792292181,0.00128043275084083,-0.000357075868347844,5,11.4,29.9
5.73333333333333,11.6755851153425,25.1216792292181,0.000901413538115159,-0.000379019212725666,5,11.3666666666667,29.9
5.76666666666667,11.6755851153425,25.1216792292181,0.000523892788864933,-0.000377520749250226,5,11.3333333333333,29.9
5.8,11.6755851153425,25.1216792292181,0.000168151761187122,-0.000355741027677811,5,11.3,29.9
5.83333333333333,11.6755851153425,25.1216792292181,0.000149399009635916,-1.8752751551206e-05,5,11.2666666666667,29.9
5.86666666666667,11.6755851153425,25.1216792292181,0.000416617784723007,0.000267218775087092,5,11.2333333333333,29.9
5.9,11.6755851153425,25.1216792292181,0.000625736761641005,0.000209118976917998,5,11.2,29.9
5.93333333333333,11.6755851153425,25.1216792292181,0.000773207725363648,0.000147470963722643,5,11.1666666666667,29.9
5.96666666666667,11.6755851153425,25.1216792292181,0.000859332026196415,8.61243008327664e-05,5,11.1333333333333,29.9
6,11.6755851153425,25.1216792292181,0.000887725098473312,2.83930722768973e-05,5,11.1,29.9
6.03333333333333,11.6755851153425,25.1216792292181,0.0008646683361906,-2.3056762282712e-05,5,11.0666666666667,29.9
6.06666666666667,11.6755851153425,25.1216792292181,0.000798400326770605,-6.62680094199948e-05,5,11.0333333333333,29.9
6.1,11.6755851153425,25.1216792292181,0.000698395738335082,-0.000100004588435523,5,11,29.9
6.13333333333333,11.6755851153425,25.1216792292181,0.000574674181455345,-0.000123721556879737,5,10.9666666666667,29.9
6.16666666666667,11.6755851153425,25.1216792292181,0.000437173790575074,-0.000137500390880272,5,10.9333333333333,29.9
6.2,11.6755851153425,25.1216792292181,0.000295215759346703,-0.00014195803122837,5,10.9,29.9
6.23333333333333,11.6755851153425,25.1216792292181,0.00015707724381611,-0.000138138515530594,5,10.8666666666667,29.9
6.26666666666667,11.6755851153425,25.1216792292181,2.96814720858138e-05,-0.000127395771730296,5,10.8333333333333,29.9
6.3,11.6755851153425,25.1216792292181,8.15939706715453e-05,5.19124985857315e-05,5,10.8,29.9
6.33333333333333,11.6755851153425,25.1216792292181,0.000172996523942962,9.14025532714168e-05,5,10.7666666666667,29.9
6.36666666666667,11.6755851153425,25.1216792292181,0.00024237705381376,6.93805298707976e-05,5,10.7333333333333,29.9
6.4,11.6755851153425,25.1216792292181,0.000289082709751359,4.67056559375997e-05,5,10.7,29.9
