Time,x_ego,y_ego,velocity,acceleration,action,x_ped,y_ped
0,11.8,8.9,5,0,1,15.5,29.9
0.0333333333333333,11.7999963849159,9.06660768883747,4.99642262383768,-0.00357737616232345,1,15.5,29.9
0.0666666666666667,11.7999731931147,9.23309265291487,4.99264768180993,-0.00377494202774908,1,15.5,29.9
0.1,11.799916633104,9.39944929503992,4.98873172454986,-0.00391595726007044,1,15.5,29.9
0.133333333333333,11.7998187588898,9.56567361580513,4.98471522676415,-0.00401649778570246,1,15.5,29.9
0.166666666666667,11.7996764593977,9.73176275995304,4.98062710743408,-0.00408811933007236,1,15.5,29.9
0.2,11.7994902181123,9.89771469230113,4.97648802629002,-0.00413908114406425,1,15.5,29.9
0.233333333333333,11.7992629022974,10.0635279664076,4.97231276513208,-0.00417526115793354,1,15.5,29.9
0.266666666666667,11.7989987367914,10.2292015592328,4.96811192693604,-0.00420083819604322,1,15.5,29.9
0.3,11.7987025219883,10.3947347526023,4.96389313678642,-0.00421879014962556,1,15.5,29.9
0.333333333333333,11.7983790857285,10.5601270478827,4.95966188828662,-0.00423124849979217,1,15.5,29.9
0.366666666666667,11.7980329207334,10.7253781043321,4.95542214251403,-0.00423974577259845,1,15.5,29.9
0.4,11.7976679501918,10.8904876944443,4.95117675526774,-0.00424538724628842,1,15.5,29.9
0.433333333333333,11.7972873754047,11.0554556715765,4.94692778420367,-0.00424897106407052,1,15.5,29.9
0.466666666666667,11.7968935799033,11.2202819465084,4.94267671060444,-0.00425107359923071,1,15.5,29.9
0.5,11.7964880840536,11.3849664705289,4.93842459960157,-0.00425211100286038,1,15.5,29.9
0.533333333333333,11.7960715560574,11.5495092233064,4.93417221574754,-0.00425238385403137,1,15.5,29.9
0.566666666666667,11.7956438869505,11.7139102042761,4.92992010628076,-0.00425210946678245,1,15.5,29.9
0.6,11.7952043300707,11.8781694266109,4.92566866116449,-0.00425144511626829,1,15.5,29.9
0.633333333333333,11.7947516935742,12.0422869130831,4.92141815648432,-0.00425050468017396,1,15.5,29.9
0.666666666666667,11.7942845628271,12.2062626932964,4.91716878589155,-0.00424937059277219,1,15.5,29.9
0.7,11.7938015221214,12.3700968018838,4.91292068343597,-0.00424810245557605,1,15.5,29.9
0.733333333333333,11.7933013445566,12.5337892773584,4.90867394024661,-0.00424674318935736,1,15.5,29.9
0.766666666666667,11.7927831252552,12.6973401613691,4.90442861691291,-0.00424532333370742,1,15.5,29.9
0.8,11.7922463445351,12.8607494981745,4.90018475290683,-0.00424386400607979,1,15.5,29.9
0.833333333333333,11.791690861231,13.0240173342074,4.89594237388592,-0.00424237902090141,1,15.5,29.9
0.866666666666667,11.7911168487361,13.1871437176559,4.89170149727516,-0.00424087661076822,1,15.5,29.9
0.9,11.7905246948757,13.3501286980372,4.88746213624767,-0.00423936102748446,1,15.5,29.9
0.933333333333333,11.7899148899635,13.5129723257751,4.88322430216891,-0.00423783407876144,1,15.5,29.9
0.966666666666667,11.7892879253029,13.6756746518121,4.87898800568719,-0.00423629648172064,1,15.5,29.9
1,11.7886442181711,13.8382357272905,4.87475325682377,-0.0042347488634169,1,15.5,29.9
1.03333333333333,11.7879840709317,14.0006556033264,4.87052006451449,-0.00423319230928421,1,15.5,29.9
1.06666666666667,11.7873076635284,14.1629343308858,4.86628843602957,-0.00423162848492087,1,15.5,29.9
1.1,11.7866150720211,14.3250719607526,4.86205837657205,-0.00423005945751509,1,15.5,29.9
1.13333333333333,11.7859063021609,14.4870685435627,4.85782988919295,-0.0042284873790992,1,15.5,29.9
1.16666666666667,11.7851813264906,14.6489241298739,4.85360297502268,-0.0042269141702711,1,15.5,29.9
1.2,11.7844401156063,14.8106387702381,4.84937763373087,-0.00422534129181251,1,15.5,29.9
1.23333333333333,11.7836826579907,14.9722125152531,4.84515386408999,-0.00422376964088489,1,15.5,29.9
1.26666666666667,11.7829089670161,15.1336454155819,4.84093166451897,-0.00422219957101522,1,15.5,29.9
1.3,11.7821190772638,15.2949375219386,4.83671103350891,-0.00422063101006476,1,15.5,29.9
1.33333333333333,11.7813130344883,15.4560888850537,4.83249196987411,-0.00421906363479874,1,15.5,29.9
1.36666666666667,11.7804908841499,15.6170995556312,4.82827447281981,-0.00421749705429608,1,15.5,29.9
1.4,11.779652662627,15.7779695843146,4.82405854186075,-0.00421593095906392,1,15.5,29.9
1.43333333333333,11.7787983935076,15.9386990216714,4.81984417665301,-0.00421436520774066,1,15.5,29.9
1.46666666666667,11.7779280893615,16.0992879181994,4.81563137680924,-0.00421279984376621,1,15.5,29.9
1.5,11.7770417576971,16.2597363243514,4.81142014175563,-0.00421123505360832,1,15.5,29.9
1.53333333333333,11.7761394087788,16.4200442905703,4.80721047066498,-0.00420967109064829,1,15.5,29.9
1.56666666666667,11.77522106278,16.5802118673234,4.80300236247267,-0.00420810819231132,1,15.5,29.9
1.6,11.7742867542713,16.7402391051263,4.79879581595852,-0.00420654651415209,1,15.5,29.9
1.63333333333333,11.7733365347967,16.9001256912326,4.79456903098229,-0.00422678497622986,1,15.5,29.9
1.66666666666667,11.7723704684095,17.0598713130082,4.79034380859059,-0.0042252223917032,1,15.5,29.9
1.7,11.7713887704075,17.219447319166,4.78439803740533,-0.00594577118525219,1,15.5,29.9
1.73333333333333,11.7703916639059,17.3788250636576,4.77845409368638,-0.00594394371895479,1,15.5,29.9
1.76666666666667,11.7693793825515,17.5379755426771,4.77076817223371,-0.00768592145267277,1,15.5,29.9
1.8,11.768352006103,17.696898825999,4.7648284375454,-0.00593973468830988,1,15.5,29.9
1.83333333333333,11.7673094542347,17.8556240511951,4.75889087216247,-0.00593756538292656,1,15.5,29.9
1.86666666666667,11.7662517929291,18.0141512894366,4.75295548397314,-0.00593538818933226,1,15.5,29.9
1.9,11.7651790811003,18.1724806120776,4.7470222781609,-0.00593320581223455,1,15.5,29.9
1.93333333333333,11.7640913731552,18.3306120905962,4.74109125791239,-0.00593102024850989,1,15.5,29.9
1.96666666666667,11.7629887218335,18.4885457965577,4.73516242498733,-0.00592883292506752,1,15.5,29.9
2,11.7618713552587,18.6462527363532,4.72749186905131,-0.00767055593601729,1,15.5,29.9
2.03333333333333,11.7607393330299,18.803732986888,4.72156767925557,-0.00592418979573761,1,15.5,29.9
2.06666666666667,11.7595925430527,18.9610156906903,4.71564578438563,-0.00592189486993888,1,15.5,29.9
2.1,11.7584310496103,19.1181009225377,4.70972615356692,-0.00591963081871416,1,15.5,29.9
2.13333333333333,11.7572551029457,19.2749596911668,4.7020648529672,-0.00766130059971726,1,15.5,29.9
2.16666666666667,11.7560649584914,19.431563009906,4.69440604363845,-0.00765880932874907,1,15.5,29.9
2.2,11.7548606901135,19.5879109623676,4.68674982018766,-0.00765622345078931,1,15.5,29.9
2.23333333333333,11.7536423735012,19.7440036348643,4.67909624987378,-0.0076535703138827,1,15.5,29.9
2.26666666666667,11.7524100853231,19.8998411156295,4.67144538035749,-0.00765086951629179,1,15.5,29.9
2.3,11.7511639027904,20.0554234942595,4.66379724525563,-0.00764813510186002,1,15.5,29.9
2.33333333333333,11.7499039034928,20.2107508613144,4.6561518681212,-0.00764537713442426,1,15.5,29.9
2.36666666666667,11.7486303700816,20.3657946063104,4.64678715194265,-0.00936471617854995,1,15.5,29.9
2.4,11.7473435924008,20.5205261243812,4.63742548220407,-0.0093616697385821,1,15.5,29.9
2.43333333333333,11.7460436632034,20.6749455182208,4.62806697166009,-0.00935851054398018,1,15.5,29.9
2.46666666666667,11.7447306795336,20.8290528937628,4.61871170043835,-0.00935527122173951,1,15.5,29.9
2.5,11.7434047410081,20.9828483592415,4.60935972527087,-0.00935197516748687,1,15.5,29.9
2.53333333333333,11.7420659480667,21.1363320245153,4.60001108610002,-0.00934863917084794,1,15.5,29.9
2.56666666666667,11.7407144004191,21.2895040005781,4.59066581081852,-0.00934527528149776,1,15.5,29.9
2.6,11.7393506487061,21.4423066327387,4.5778578915322,-0.0128079192863222,1,15.5,29.9
2.63333333333333,11.7379752549775,21.5946822771245,4.56505389052882,-0.0128040010033788,1,15.5,29.9
2.66666666666667,11.7365883411472,21.7466310677545,4.55225402820883,-0.0127998623199854,1,15.5,29.9
2.7,11.7351902696348,21.8981244434453,4.53773634676505,-0.0145176814437855,1,15.5,29.9
2.73333333333333,11.7337814146078,22.0491338525978,4.52322333030455,-0.0145130164604979,1,15.5,29.9
2.76666666666667,11.7323621693583,22.1996303890171,4.50697124849333,-0.0162520818112162,1,15.5,29.9
2.8,11.7309329396168,22.349585156908,4.4907244060466,-0.0162468424467352,1,15.5,29.9
2.83333333333333,11.7294943888728,22.4989409316647,4.47103877035649,-0.0196856356901076,3,15.5,29.9
2.86666666666667,11.7280471987927,22.6476405044554,4.45135922570728,-0.0196795446492111,3,15.5,29.9
2.9,11.7265915772262,22.7956840842325,4.43168608016009,-0.0196731455471895,3,15.5,29.9
2.93333333333333,11.7251282491903,22.9430141227308,4.40855352102396,-0.0231325591361342,3,15.5,29.9
2.96666666666667,11.7236576996002,23.0896017893632,4.38715036285221,-0.0214031581717418,3,15.5,29.9
3,11.7221799100535,23.2354760299049,4.36575455229964,-0.0213958105525771,3,15.5,29.9
3.03333333333333,11.7206953769115,23.3806083911425,4.34264409222375,-0.0231104600758876,3,15.5,29.9
3.06666666666667,11.7192045984288,23.5249704282329,4.3195414360409,-0.0231026561828447,3,15.5,29.9
3.1,11.7177078114349,23.6685624053729,4.29644674521808,-0.0230946908228278,3,15.5,29.9
3.13333333333333,11.7162055189502,23.8113558900836,4.27163801540332,-0.0248087298147617,3,15.5,29.9
3.16666666666667,11.7146985017068,23.9532933934619,4.24509377802931,-0.0265442373740097,3,15.5,29.9
3.2,11.7131883843441,24.0942309723142,4.2116480908159,-0.0334456872134101,3,15.5,29.9
3.23333333333333,11.7116776689711,24.2339382462817,4.17128037300348,-0.040367717812412,3,15.5,29.9
3.26666666666667,11.7101695059826,24.3721271169395,4.12054795548251,-0.0507324175209725,3,15.5,29.9
3.3,11.7086680106208,24.5084234497605,4.05773103020744,-0.0628169252750697,3,15.5,29.9
3.33333333333333,11.7071783199461,24.6423667333133,3.9793664966005,-0.0783645336069396,3,15.5,29.9
3.36666666666667,11.7057060668159,24.7734675068885,3.88718028228521,-0.0921862143152872,3,15.5,29.9
3.4,11.7042577073966,24.9011786750981,3.77598825823884,-0.111192024046378,3,15.5,29.9
3.43333333333333,11.7028408431129,25.0248668276776,3.64579541705335,-0.130192841185488,3,15.5,29.9
3.46666666666667,11.7014627780407,25.1439564916297,3.50007325224366,-0.145722164809693,3,15.5,29.9
3.5,11.7001299103054,25.2579875348839,3.34227126157045,-0.157801990673209,3,15.5,29.9
3.53333333333333,11.6988482829025,25.3665577514234,3.17241594406268,-0.169855317507765,3,15.5,29.9
3.56666666666667,11.6976232268629,25.469351549873,2.99567800025987,-0.17673794380281,3,15.5,29.9
3.6,11.6964596049642,25.5661108679097,2.81033856478464,-0.185339435475226,3,15.5,29.9
3.63333333333333,11.6953632755817,25.6564916494155,2.61295625210252,-0.197382312682126,3,15.5,29.9
3.66666666666667,11.6943401375987,25.7401499460455,2.40697821469854,-0.205978037403981,3,15.5,29.9
3.7,11.6933951286001,25.8168284388546,2.1941603639012,-0.212817850797343,3,15.5,29.9
3.73333333333333,11.6925329146696,25.8862793267523,1.97363982223558,-0.220520541665615,3,15.5,29.9
3.76666666666667,11.6917560910834,25.9484225861607,1.75586295266369,-0.217776869571892,3,15.5,29.9
3.8,11.6910649734473,26.0033621756005,1.54144535840437,-0.214417594259323,3,15.5,29.9
3.83333333333333,11.6904594654836,26.0512144780825,1.33062471603766,-0.210820642366707,3,15.5,29.9
3.86666666666667,11.6899391471036,26.092101974256,1.12353493998644,-0.207089776051223,3,15.5,29.9
3.9,11.6895033289921,26.1261509330617,0.920308562554705,-0.203226377431731,3,15.5,29.9
3.93333333333333,11.6891510481626,26.1534947913045,0.721203918829208,-0.199104643725496,3,15.5,29.9
3.96666666666667,11.688881131967,26.1742714025101,0.526216340955867,-0.194987577873342,3,15.5,29.9
4,11.68869227458,26.1886190326547,0.335436250829748,-0.190780090126118,3,15.5,29.9
4.03333333333333,11.6885830402819,26.1966787140745,0.148901431153107,-0.186534819676641,3,15.5,29.9
4.06666666666667,11.6885543232876,26.1983776624847,0.067958296556635,-0.0809431345964717,3,15.5,29.9
4.1,11.6885791990645,26.1961160238117,0.00600281952689935,-0.0619554770297356,3,15.5,29.9
4.13333333333333,11.6885791990645,26.1961160238117,0.00861940028131922,0.00261658075441987,5,15.5,29.9
4.16666666666667,11.6885791990645,26.1961160238117,0.0115530123420952,0.00293361206077595,5,15.5,29.9
4.2,11.6885791990645,26.1961160238117,0.0146350576796388,0.00308204533754358,5,15.5,29.9
4.23333333333333,11.6885791990645,26.1961160238117,0.017635616451016,0.00300055877137729,5,15.5,29.9
4.26666666666667,11.6885791990645,26.1961160238117,0.020300581861247,0.00266496541023099,5,15.5,29.9
4.3,11.6885791990645,26.1961160238117,0.0223857507111828,0.00208516884993578,5,15.5,29.9
4.33333333333333,11.6885791990645,26.1961160238117,0.0236852659240116,0.00129951521282882,5,15.5,29.9
4.36666666666667,11.6885791990645,26.1961160238117,0.0240527076557872,0.000367441731775539,5,15.5,29.9
4.4,11.6885791990645,26.1961160238117,0.0234140144442798,-0.000638693211507401,5,15.5,29.9
4.43333333333333,11.6885791990645,26.1961160238117,0.0217722208353061,-0.00164179360897368,5,15.5,29.9
4.46666666666667,11.6885791990645,26.1961160238117,0.0192046752910277,-0.00256754554427841,5,15.5,29.9
4.5,11.6885791990645,26.1961160238117,0.0158539214549134,-0.00335075383611428,5,15.5,29.9
4.53333333333333,11.6885791990645,26.1961160238117,0.0119137731403382,-0.00394014831457522,5,15.5,29.9
4.56666666666667,11.6885791990645,26.1961160238117,0.00761228969380323,-0.00430148344653495,5,15.5,29.9
4.6,11.6885791990645,26.1961160238117,0.00319337698433525,-0.00441891270946798,5,15.5,29.9
4.63333333333333,11.6885791990645,26.1961160238117,0.00110137708778988,-0.00209199989654537,5,15.5,29.9
4.66666666666667,11.6885791990645,26.1961160238117,0.00504924599651594,0.00394786890872606,5,15.5,29.9
4.7,11.6885791990645,26.1961160238117,0.00846019644612643,0.00341095044961049,5,15.5,29.9
4.73333333333333,11.6885791990645,26.1961160238117,0.0111872554963094,0.002727059050183,5,15.5,29.9
4.76666666666667,11.6885791990645,26.1961160238117,0.0131330076094772,0.00194575211316774,5,15.5,29.9
4.8,11.6885791990645,26.1961160238117,0.0142521478696714,0.00111914026019418,5,15.5,29.9
4.83333333333333,11.6885791990645,26.1961160238117,0.0145503113217601,0.000298163452088796,5,15.5,29.9
4.86666666666667,11.6885791990645,26.1961160238117,0.0140796383993466,-0.00047067292241351,5,15.5,29.9
4.9,11.6885791990645,26.1961160238117,0.0129317130588814,-0.00114792534046523,5,15.5,29.9
4.93333333333333,11.6885791990645,26.1961160238117,0.0112286196792542,-0.0017030933796272,5,15.5,29.9
4.96666666666667,11.6885791990645,26.1961160238117,0.00911290843319551,-0.0021157112460587,5,15.5,29.9
5,11.6885791990645,26.1961160238117,0.00673724247708877,-0.00237566595610674,5,15.5,29.9
5.03333333333333,11.6885791990645,26.1961160238117,0.00425443306127009,-0.00248280941581868,5,15.5,29.9
5.06666666666667,11.6885791990645,26.1961160238117,0.00180846187743421,-0.00244597118383588,5,15.5,29.9
5.1,11.6885791990645,26.1961160238117,0.000473043897698587,-0.00133541797973562,5,15.5,29.9
5.13333333333333,11.6885791990645,26.1961160238117,0.00258317842738892,0.00211013452969033,5,15.5,29.9
5.16666666666667,11.68857633886,26.1963707474217,0.0117689250129942,0.00918574658560533,5,15.5,29.9
5.2,11.6885704244688,26.1968974769279,0.0215637391152199,0.00979481410222569,5,15.5,29.9
5.23333333333333,11.6885595621383,26.1978647565586,0.0379768944544194,0.0164131553391994,5,15.5,29.9
5.26666666666667,11.6885399424525,26.1996115759348,0.067910346754643,0.0299334523002237,4,15.5,29.9
5.3,11.6885061942734,26.2026155687298,0.112993018584008,0.0450826718293649,4,15.5,29.9
5.33333333333333,11.6884546381921,26.2072026368599,0.162613155802687,0.0496201372186794,4,15.5,29.9
5.36666666666667,11.6883845805941,26.2134308453974,0.211290844686208,0.0486776888835205,4,15.5,29.9
5.4,11.6882963471792,26.2212648034048,0.258851091850962,0.0475602471647536,4,15.5,29.9
5.43333333333333,11.6881902599369,26.230666219895,0.30528086180862,0.0464297699576587,4,15.5,29.9
5.46666666666667,11.6880665868775,26.2415979965874,0.350628786064015,0.0453479242553947,4,15.5,29.9
5.5,11.6879255360421,26.2540245623881,0.394934892897588,0.0443061068335729,4,15.5,29.9
5.53333333333333,11.6877672587902,26.267911586619,0.438232366415494,0.0432974735179066,4,15.5,29.9
5.56666666666667,11.6875918547678,26.2832257623657,0.480547351713715,0.0423149852982201,4,15.5,29.9
5.6,11.6873993829488,26.2999342745306,0.521879582787003,0.041332231073288,4,15.5,29.9
5.63333333333333,11.6871898770177,26.3180041027642,0.562222376640939,0.0403427938539365,4,15.5,29.9
5.66666666666667,11.6869633535205,26.3374021726169,0.601577458624637,0.0393550819836977,4,15.5,29.9
5.7,11.6867198208984,26.358095599173,0.639952637766963,0.0383751791423258,4,15.5,29.9
5.73333333333333,11.6864592907016,26.3800518606352,0.677360067791153,0.03740743002419,4,15.5,29.9
5.76666666666667,11.6861817891666,26.4032390054104,0.713825048024912,0.0364649802337597,4,15.5,29.9
5.8,11.6858873605469,26.4276265899373,0.749409253197466,0.0355842051725538,4,15.5,29.9
5.83333333333333,11.6855760733587,26.453186281363,0.784171265856398,0.0347620126589315,4,15.5,29.9
5.86666666666667,11.6852480356251,26.4798915149558,0.818158484347858,0.0339872184914604,4,15.5,29.9
5.9,11.6849034076185,26.5077171658207,0.851410016572215,0.0332515322243576,4,15.5,29.9
5.93333333333333,11.6845424107153,26.536639303804,0.883958778646955,0.0325487620747396,4,15.5,29.9
5.96666666666667,11.6841653321989,26.5666350038864,0.915831803768581,0.0318730251216256,4,15.5,29.9
6,11.6837725301783,26.597681818504,0.947023714271571,0.0311919105029906,4,15.5,29.9
6.03333333333333,11.6833644434332,26.6297564843469,0.977501546894405,0.0304778326228342,4,15.5,29.9
6.06666666666667,11.682941583688,26.6628348556622,1.00724712508844,0.029745578194033,4,15.5,29.9
6.1,11.6825045183328,26.6968923792165,1.03625331587002,0.0290061907815808,4,15.5,29.9
6.13333333333333,11.6820538522469,26.7319043925841,1.06452095804865,0.0282676421786319,4,15.5,29.9
6.16666666666667,11.6815902077923,26.7678463889836,1.09205821469208,0.0275372566434338,4,15.5,29.9
6.2,11.6811142041049,26.8046942254324,1.11887832386252,0.0268201091704361,4,15.5,29.9
6.23333333333333,11.680626436738,26.8424242681223,1.14499915269922,0.0261208288367025,4,15.5,29.9
6.26666666666667,11.6801274553393,26.8810137659964,1.17045822535173,0.025459072652509,4,15.5,29.9
6.3,11.6796177406775,26.9204414262487,1.19530023313469,0.0248420077829621,4,15.5,29.9
6.33333333333333,11.6790976919987,26.9606873294465,1.21956280056622,0.0242625674315242,4,15.5,29.9
6.36666666666667,11.6785676168088,27.0017329442645,1.24331007325633,0.023747272690108,4,15.5,29.9
6.4,11.6780276758846,27.0435653290979,1.26685397973894,0.0235439064826173,4,15.5,29.9
6.43333333333333,11.6774777603435,27.0861874622976,1.29082593553172,0.023971955792774,4,15.5,29.9
6.46666666666667,11.6769173840527,27.1296274936199,1.316091675051,0.0252657395192777,4,15.5,29.9
6.5,11.6763456047588,27.1739457166464,1.34372113081415,0.027629455763158,4,15.5,29.9
6.53333333333333,11.6757609366891,27.2192423536788,1.37503838092714,0.0313172501129879,4,15.5,29.9
6.56666666666667,11.6751612866011,27.2656633399391,1.41139245169957,0.036354070772429,4,15.5,29.9
6.6,11.6745440164762,27.3133953359401,1.45385493791462,0.0424624862150458,4,15.5,29.9
6.63333333333333,11.6739060741822,27.3626549902325,1.50315928063907,0.0493043427244502,4,15.5,29.9
6.66666666666667,11.673244116883,27.4136788527315,1.55977506454075,0.0566157839016801,4,15.5,29.9
6.7,11.6725546130721,27.4667151389755,1.62393484017784,0.0641597756370906,4,15.5,29.9
6.73333333333333,11.671833945549,27.5220154782802,1.69560190774343,0.0716670675655975,4,15.5,29.9
6.76666666666667,11.6710785240042,27.5798259409465,1.77449204298587,0.0788901352424369,4,15.5,29.9
6.8,11.6702848795286,27.6403796735464,1.86011941884551,0.0856273758596358,4,15.5,29.9
6.83333333333333,11.6694497439296,27.7038908938506,1.95184397080239,0.0917245519568868,4,15.5,29.9
6.86666666666667,11.6685701067468,27.7705508128476,2.04893663437007,0.0970926635676765,4,15.5,29.9
6.9,11.6676432464825,27.8405257292013,2.15063884053938,0.10170220616931,4,15.5,29.9
