Time,x_ego,y_ego,velocity,acceleration,action,x_ped,y_ped
0,11.8,15.9,5,0,1,15.5,29.9
0.0333333333333333,11.8,16.0666076888419,4.99642261439338,-0.0035773856066168,1,15.3694444444444,29.9
0.0666666666666667,11.8,16.2330926531145,4.99264756783477,-0.00377504655861216,1,15.2444444444444,29.9
0.1,11.8,16.399449296924,4.98873130122091,-0.00391626661385835,1,15.125,29.9
0.133333333333333,11.8,16.5656736245138,4.98471426828108,-0.00401703293983147,1,15.0111111111111,29.9
0.166666666666667,11.8,16.7317627870126,4.98062546389497,-0.00408880438611448,1,14.9027777777778,29.9
0.2,11.8,16.8977147575669,4.97648566969706,-0.00413979419790333,1,14.8,29.9
0.233333333333333,11.8,17.063528098494,4.97230978036584,-0.00417588933122204,1,14.7027777777778,29.9
0.266666666666667,11.8,17.2292017943893,4.96810847105553,-0.00420130931030815,1,14.6111111111111,29.9
0.3,11.8,17.3947351325064,4.96388939262275,-0.00421907843277847,1,14.525,29.9
0.333333333333333,11.8,17.5601276170202,4.95965802839236,-0.00423136423039949,1,14.4444444444444,29.9
0.366666666666667,11.8,17.7253789075748,4.95541830829244,-0.00423972009991047,1,14.3694444444444,29.9
0.4,11.7999964153232,17.8904884119128,4.95115125954513,-0.00426704874731243,1,14.3,29.9
0.433333333333333,11.7999734062316,18.0554559808404,4.94690258750627,-0.00424867203886414,1,14.2361111111111,29.9
0.466666666666667,11.7999172623357,18.2202818846198,4.94265204836321,-0.00425053914305362,1,14.1777777777778,29.9
0.5,11.7998200664574,18.3849657055229,4.93837890215399,-0.00427314620922647,1,14.125,29.9
0.533333333333333,11.7996787108191,18.5495074158747,4.93412741806065,-0.00425148409334231,1,14.0777777777778,29.9
0.566666666666667,11.7994936773708,18.7139073704418,4.92987620556241,-0.00425121249823501,1,14.0361111111111,29.9
0.6,11.7992678487292,18.8781365095509,4.92388162304163,-0.00599458252077678,1,14,29.9
0.633333333333333,11.7990054714955,19.0421944931682,4.91961015962204,-0.00427146341959617,1,13.9694444444444,29.9
0.666666666666667,11.7987113693821,19.206110057285,4.91533971197102,-0.00427044765101758,1,13.9444444444444,29.9
0.7,11.7983904291717,19.3698545387122,4.90934829036448,-0.00599142160654242,1,13.925,29.9
0.733333333333333,11.7980472092862,19.5333992850657,4.90335838194998,-0.00598990841449609,1,13.9111111111111,29.9
0.766666666666667,11.7976856798298,19.6967443559618,4.89737018777472,-0.00598819417526197,1,13.9027777777778,29.9
0.8,11.7973090831649,19.8598898166138,4.89138386284053,-0.00598632493418894,1,13.9,29.9
0.833333333333333,11.7969198350165,20.0228357357028,4.8853995247178,-0.00598433812273225,1,13.9,29.9
0.866666666666667,11.7965195157439,20.1855531180213,4.8776733516996,-0.00772617301820233,1,13.9,29.9
0.9,11.7961088507268,20.3480129743096,4.86994958677929,-0.00772376492030435,1,13.9,29.9
0.933333333333333,11.795687748887,20.5102153865138,4.86222838157925,-0.00772120520004282,1,13.9,29.9
0.966666666666667,11.7952554787921,20.672160439096,4.85450984225559,-0.00771853932365829,1,13.9,29.9
1,11.7948109116742,20.8338195156858,4.84507193027272,-0.00943791198287158,1,13.9,29.9
1.03333333333333,11.7943527027286,20.9951640061852,4.83563707003821,-0.00943486023450735,1,13.9,29.9
1.06666666666667,11.793879465608,21.1561940092876,4.82620539576016,-0.0094316742780487,1,13.9,29.9
1.1,11.7933901856603,21.3168231571551,4.81158886570748,-0.0146165300526784,1,13.9,29.9
1.13333333333333,11.7928842609561,21.4769360350738,4.79523256196257,-0.0163563037449102,1,13.9,29.9
1.16666666666667,11.7923614651107,21.6364463185167,4.77543679565465,-0.0197957663079222,3,13.9,29.9
1.2,11.7918220656069,21.7952390077224,4.75218065415626,-0.0232561414983889,3,13.9,29.9
1.23333333333333,11.7912667070977,21.953198772231,4.72546513215314,-0.0267155220031201,3,13.9,29.9
1.26666666666667,11.7906966788242,22.1100664419733,4.68665894231769,-0.0388061898354515,3,13.9,29.9
1.3,11.7901136255933,22.2655251418963,4.64093086650914,-0.0457280758085563,3,13.9,29.9
1.33333333333333,11.7895191017047,22.4193445434204,4.58830492088937,-0.0526259456197664,3,13.9,29.9
1.36666666666667,11.7889147118754,22.5712947563547,4.5287834004701,-0.0595215204192643,3,13.9,29.9
1.4,11.7883022417283,22.7210878360811,4.45888082347484,-0.0699025769952657,3,13.9,29.9
1.43333333333333,11.7876835759797,22.8684072237928,4.38036579268895,-0.0785150307858888,3,13.9,29.9
1.46666666666667,11.7870610060088,23.0128212823555,4.28456517767201,-0.0958006150169384,3,13.9,29.9
1.5,11.7864368297124,23.1539271965277,4.18188122326885,-0.10268395440316,3,13.9,29.9
1.53333333333333,11.7858128243484,23.2915242749745,4.07403917254847,-0.107842050720384,3,13.9,29.9
1.56666666666667,11.7851907863273,23.4254402609943,3.96101981186407,-0.113019360684401,3,13.9,29.9
1.6,11.7845728198396,23.5554455762656,3.8394029661135,-0.121616845750568,3,13.9,29.9
1.63333333333333,11.7839611294532,23.6813110897451,3.71263537616104,-0.126767589952463,3,13.9,29.9
1.66666666666667,11.7833580103925,23.8028073854943,3.57725304108356,-0.135382335077479,3,13.9,29.9
1.7,11.7827658168112,23.9197051255227,3.43672433329103,-0.140528707792529,3,13.9,29.9
1.73333333333333,11.7821867208913,24.0318328133364,3.29105117631058,-0.145673156980448,3,13.9,29.9
1.76666666666667,11.7816229005356,24.1390190169768,3.14023535281532,-0.150815823495264,3,13.9,29.9
1.8,11.781076407716,24.2411210662469,2.98600067688345,-0.154234675931863,3,13.9,29.9
1.83333333333333,11.7805491538372,24.3380250445004,2.82834855491479,-0.157652121968666,3,13.8991319444444,29.9
1.86666666666667,11.7800431383522,24.4295883757536,2.66555813410793,-0.162790420806859,3,13.8965277777778,29.9
1.9,11.7795600893706,24.5157262940874,2.50281899300967,-0.162739141098257,3,13.8921875,29.9
1.93333333333333,11.7791014537143,24.5964118325638,2.33840976555971,-0.164409227449963,3,13.8861111111111,29.9
1.96666666666667,11.7786687213082,24.6715891529443,2.17234841147407,-0.166061354085636,3,13.8782986111111,29.9
2,11.7782632094161,24.7412153462992,2.00563425587951,-0.16671415559456,3,13.86875,29.9
2.03333333333333,11.7778859035903,24.8052947423388,1.83966421470901,-0.165970041170499,3,13.8574652777778,29.9
2.06666666666667,11.7775372708286,24.8639186038845,1.67832405526848,-0.161340159440531,3,13.8444444444444,29.9
2.1,11.7772172167684,24.9172718427975,1.52342809557753,-0.154895959690949,3,13.8296875,29.9
2.13333333333333,11.7769256317431,24.9655119631368,1.3715307434883,-0.151897352089237,3,13.8131944444444,29.9
2.16666666666667,11.7766625413436,25.0087387401614,1.22262084819883,-0.148909895289464,3,13.7949652777778,29.9
2.2,11.7764277284418,25.0470798051147,1.07837946616224,-0.144241382036593,3,13.775,29.9
2.23333333333333,11.7762208808014,25.0806623601239,0.937133413746191,-0.141246052416046,3,13.7532986111111,29.9
2.26666666666667,11.7760415861967,25.1096174116478,0.800740339263617,-0.136393074482574,3,13.7298611111111,29.9
2.3,11.7758893605033,25.1340772445597,0.667394707036294,-0.133345632227323,3,13.7046875,29.9
2.33333333333333,11.7757638241432,25.1541412095935,0.536992808231076,-0.130401898805218,3,13.6777777777778,29.9
2.36666666666667,11.7756645626893,25.1699078873005,0.409576027564247,-0.127416780666829,3,13.6491319444444,29.9
2.4,11.7755911291144,25.1814768549467,0.285135642384501,-0.124440385179746,3,13.61875,29.9
2.43333333333333,11.7755430676981,25.1889455737885,0.163593135537523,-0.121542506846978,3,13.5866319444444,29.9
2.46666666666667,11.7755199145231,25.192410931889,0.0451824912632044,-0.118410644274319,3,13.5527777777778,29.9
2.5,11.7755194328402,25.1923364540624,0.0184546869857642,-0.0267278042774402,3,13.5171875,29.9
2.53333333333333,11.7755270522104,25.1917406693566,0.00464474887069345,-0.0138099381150708,5,13.4798611111111,29.9
2.56666666666667,11.7755270522104,25.1917406693566,0.00506900164201095,0.000424252771317508,5,13.4407986111111,29.9
2.6,11.7755270522104,25.1917406693566,0.0058307578417382,0.00076175619972725,5,13.4,29.9
2.63333333333333,11.7755270522104,25.1917406693566,0.00683581023923438,0.00100505239749617,5,13.3574652777778,29.9
2.66666666666667,11.7755270522104,25.1917406693566,0.00795105399980052,0.00111524376056615,5,13.3131944444444,29.9
2.7,11.7755270522104,25.1917406693566,0.00902668110594877,0.00107562710614824,5,13.2671875,29.9
2.73333333333333,11.7755270522104,25.1917406693566,0.00991627780263848,0.000889596696689711,5,13.2194444444444,29.9
2.76666666666667,11.7755270522104,25.1917406693566,0.0104934212919104,0.000577143489271873,5,13.1699652777778,29.9
2.8,11.7755270522104,25.1917406693566,0.0106638962957821,0.000170475003871719,5,13.11875,29.9
2.83333333333333,11.7755270522104,25.1917406693566,0.0103731554830696,-0.000290740812712423,5,13.0657986111111,29.9
2.86666666666667,11.7755270522104,25.1917406693566,0.00960909606419568,-0.000764059418873968,5,13.0111111111111,29.9
2.9,11.7755270522104,25.1917406693566,0.00840059381525388,-0.0012085022489418,5,12.9546875,29.9
2.93333333333333,11.7755270522104,25.1917406693566,0.00681251096129501,-0.00158808285395887,5,12.8965277777778,29.9
2.96666666666667,11.7755270522104,25.1917406693566,0.00493807051206037,-0.00187444044923463,5,12.8366319444444,29.9
3,11.7755270522104,25.1917406693566,0.00288956963951104,-0.00204850087254933,5,12.775,29.9
3.03333333333333,11.7755270522104,25.1917406693566,0.000788397874751169,-0.00210117176475987,5,12.7116319444444,29.9
3.06666666666667,11.7755270522104,25.1917406693566,0.00124475357323838,0.000456355698487213,5,12.6465277777778,29.9
3.1,11.7755270522104,25.1917406693566,0.0030987400677515,0.00185398649451311,5,12.5796875,29.9
3.13333333333333,11.7755270522104,25.1917406693566,0.00467929011995937,0.00158055005220788,5,12.5111111111111,29.9
3.16666666666667,11.7755270522104,25.1917406693566,0.00591442195537839,0.00123513183541902,5,12.4407986111111,29.9
3.2,11.7755270522104,25.1917406693566,0.0067577547289321,0.000843332773553713,5,12.36875,29.9
3.23333333333333,11.7755270522104,25.1917406693566,0.00718969978364329,0.000431945054711184,5,12.2949652777778,29.9
3.26666666666667,11.7755270522104,25.1917406693566,0.00721667454344066,2.69747597973699e-05,5,12.2194444444444,29.9
3.3,11.7755270522104,25.1917406693566,0.00686860736767698,-0.000348067175763674,5,12.1421875,29.9
3.33333333333333,11.7755270522104,25.1917406693566,0.00619509146270221,-0.00067351590497477,5,12.0631944444444,29.9
3.36666666666667,11.7755270522104,25.1917406693566,0.0052605984329095,-0.000934493029792715,5,11.9824652777778,29.9
3.4,11.7755270522104,25.1917406693566,0.00413917875423509,-0.00112141967867441,5,11.9,29.9
3.43333333333333,11.7755270522104,25.1917406693566,0.00290906114066163,-0.00123011761357346,5,11.8157986111111,29.9
3.46666666666667,11.7755270522104,25.1917406693566,0.0016475209002728,-0.00126154024038883,5,11.7298611111111,29.9
3.5,11.7755270522104,25.1917406693566,0.000426325447012072,-0.00122119545326073,5,11.6421875,29.9
3.53333333333333,11.7755270522104,25.1917406693566,0.000692009894599398,0.000265684447587325,5,11.5527777777778,29.9
3.56666666666667,11.7755270522104,25.1917406693566,0.00165700391220006,0.000964994017600662,5,11.4616319444444,29.9
3.6,11.7755270522104,25.1917406693566,0.00243195863457963,0.000774954722379573,5,11.36875,29.9
3.63333333333333,11.7755270522104,25.1917406693566,0.0029946804675055,0.000562721832925871,5,11.2741319444444,29.9
3.66666666666667,11.7755270522104,25.1917406693566,0.00333724401272279,0.000342563545217284,5,11.1777777777778,29.9
3.7,11.7755270522104,25.1917406693566,0.00346492212110338,0.000127678108380597,5,11.0796875,29.9
3.73333333333333,11.7755270522104,25.1917406693566,0.00339444392768867,-7.04781934147158e-05,5,10.9798611111111,29.9
3.76666666666667,11.7755270522104,25.1917406693566,0.00315176557238042,-0.000242678355308246,5,10.8782986111111,29.9
3.8,11.7755270522104,25.1917406693566,0.00276954654079943,-0.000382219031580997,5,10.775,29.9
3.83333333333333,11.7755270522104,25.1917406693566,0.00228451947245637,-0.000485027068343058,5,10.6699652777778,29.9
3.86666666666667,11.7755270522104,25.1917406693566,0.00173492495835387,-0.000549594514102496,5,10.5631944444444,29.9
3.9,11.7755270522104,25.1917406693566,0.00115815781072565,-0.000576767147628224,5,10.4546875,29.9
3.93333333333333,11.7755270522104,25.1917406693566,0.000588740273780625,-0.000569417536945021,5,10.3444444444444,29.9
3.96666666666667,11.7755270522104,25.1917406693566,5.6703405235104e-05,-0.000532036868545521,5,10.2324652777778,29.9
4,11.7755270522104,25.1917406693566,0.000413577025666796,0.000356873620431692,5,10.11875,29.9
4.03333333333333,11.7755270522104,25.1917406693566,0.000804077037305336,0.000390500011638541,5,10.0032986111111,29.9
4.06666666666667,11.7755270522104,25.1917406693566,0.00110337002241074,0.000299292985105401,5,9.88611111111111,29.9
4.1,11.7755270522104,25.1917406693566,0.00130646302118286,0.000203092998772121,5,9.7671875,29.9
4.13333333333333,11.7755270522104,25.1917406693566,0.00141428442783452,0.000107821406651665,5,9.64652777777778,29.9
4.16666666666667,11.7755270522104,25.1917406693566,0.00143289685462471,1.86124267901903e-05,5,9.52413194444444,29.9
4.2,11.7755270522104,25.1917406693566,0.00137251571179277,-6.03811428319472e-05,5,9.4,29.9
4.23333333333333,11.7755270522104,25.1917406693566,0.0012464151580937,-0.000126100553699069,5,9.27413194444444,29.9
4.26666666666667,11.7755270522104,25.1917406693566,0.00106979913776896,-0.000176616020324734,5,9.14652777777778,29.9
4.3,11.7755270522104,25.1917406693566,0.000858707161487791,-0.000211091976281173,5,9.0171875,29.9
4.33333333333333,11.7755270522104,25.1917406693566,0.000629013353083474,-0.000229693808404317,5,8.88611111111111,29.9
4.36666666666667,11.7755270522104,25.1917406693566,0.000395564157101858,-0.000233449195981616,5,8.75329861111111,29.9
4.4,11.7755270522104,25.1917406693566,7.28736125700509e-05,-0.000322690544531807,5,8.61875,29.9
4.43333333333333,11.775525597724,25.1920423274382,0.0140108784304828,0.0139380048179128,5,8.48246527777778,29.9
4.46666666666667,11.7755221406375,25.1927593302237,0.0289981765938561,0.0149872981633733,5,8.34444444444444,29.9
4.5,11.7755158722851,25.1940589941773,0.0489650036988779,0.0199668271050218,4,8.2046875,29.9
4.53333333333333,11.7755058599374,25.1961337710803,0.0754913766733876,0.0265263729745096,4,8.06319444444444,29.9
4.56666666666667,11.7754911881486,25.1991713836557,0.106715884423216,0.0312245077498289,4,7.91996527777778,29.9
4.6,11.775470815189,25.2033837730863,0.145953322106051,0.0392374376828346,4,7.775,29.9
4.63333333333333,11.7754434314017,25.2090352159109,0.193028277881554,0.0470749557755025,4,7.62829861111111,29.9
4.66666666666667,11.7754082876534,25.2162686675748,0.240846414923767,0.0478181370422132,4,7.47986111111111,29.9
4.7,11.7753653211529,25.2250778856755,0.287574819007542,0.0467284040837748,4,7.3296875,29.9
4.73333333333333,11.7753145736442,25.2354269384258,0.333242109735244,0.045667290727702,4,7.17777777777778,29.9
4.76666666666667,11.7752560397369,25.2472810249822,0.377880301338787,0.0446381916035436,4,7.02413194444444,29.9
4.8,11.7751896667627,25.2606063308866,0.421516635195147,0.0436363338563597,4,6.86875,29.9
4.83333333333333,11.775115357007,25.2753698852079,0.464174671035709,0.0426580358405618,4,6.71163194444444,29.9
4.86666666666667,11.7750329729795,25.2915393036975,0.505862065133952,0.0416873940982434,4,6.55277777777778,29.9
4.9,11.7749423475181,25.3090820465192,0.546567854366188,0.040705789232236,4,6.3921875,29.9
4.93333333333333,11.7748432931947,25.3279653105025,0.586289180027963,0.0397213256617744,4,6.22986111111111,29.9
4.96666666666667,11.7747356118582,25.3481563210449,0.625030823894807,0.0387416438668441,4,6.06579861111111,29.9
5,11.7746191061307,25.3696225504919,0.662802939523157,0.03777211562835,4,5.9,29.9
5.03333333333333,11.7744935921622,25.3923318822055,0.699621620472844,0.036818680949687,4,5.9,29.9
5.06666666666667,11.7743589105399,25.4162532145345,0.735536409490867,0.0359147890180228,4,5.9,29.9
5.1,11.7742149346929,25.441357472259,0.770610096014566,0.0350736865236999,4,5.9,29.9
5.13333333333333,11.774061583459,25.4676174852861,0.804893666054368,0.0342835700398016,4,5.9,29.9
5.16666666666667,11.7738988327515,25.4950076285981,0.838428713680801,0.0335350476264324,4,5.9,29.9
5.2,11.773726724099,25.5235035506671,0.871249865121118,0.0328211514403173,4,5.9,29.9
5.23333333333333,11.7735453696262,25.5530819699892,0.903386555983052,0.0321366908619339,4,5.9,29.9
5.26666666666667,11.7733549537293,25.5837204132344,0.934851669611141,0.0314651136280895,4,5.9,29.9
5.3,11.7731557354626,25.6153960532177,0.965614277304041,0.0307626076929,4,5.9,29.9
5.33333333333333,11.772948044902,25.6480850249342,0.995649657356333,0.0300353800522917,4,5.9,29.9
5.36666666666667,11.7727322703299,25.6817628912446,1.02494713412509,0.0292974767687598,4,5.9,29.9
5.4,11.7725088428753,25.7164049984236,1.0535043667789,0.0285572326538115,4,5.9,29.9
5.43333333333333,11.7722782191024,25.7519867465737,1.08132701033464,0.027822643555738,4,5.9,29.9
5.46666666666667,11.772040862086,25.7884838267746,1.10842666734211,0.0270996570074677,4,5.9,29.9
5.5,11.7717972221022,25.8258723860117,1.13481884774441,0.0263921804022951,4,5.9,29.9
5.53333333333333,11.7715477174098,25.8641292269302,1.16053132951565,0.0257124817712435,4,5.9,29.9
5.56666666666667,11.7712927140107,25.9032324553387,1.18561028167964,0.0250789521639885,4,5.9,29.9
5.6,11.7710325101936,25.9431616431671,1.21009602127558,0.0244857395959448,4,5.9,29.9
5.63333333333333,11.7707673263608,25.9838975962295,1.23402246502961,0.0239264437540261,4,5.9,29.9
5.66666666666667,11.7704972986513,26.025422166699,1.25741862041536,0.0233961553857487,4,5.9,29.9
5.7,11.7702224769153,26.0677181083546,1.28030969422463,0.022891073809272,4,5.9,29.9
5.73333333333333,11.7699428265263,26.1107691216179,1.30273960533956,0.0224299111149349,4,5.9,29.9
5.76666666666667,11.7696582202208,26.1545626405652,1.32491277060973,0.0221731652701669,4,5.9,29.9
5.8,11.7693684151023,26.1990960894644,1.34720984908352,0.0222970784737859,4,5.9,29.9
5.83333333333333,11.7690730411334,26.2443814468136,1.37011545295566,0.0229056038721442,4,5.9,29.9
5.86666666666667,11.7687716008372,26.2904479614173,1.39417418256394,0.0240587296082795,4,5.9,29.9
5.9,11.7684634759924,26.3373435885675,1.41996369354086,0.0257895109769164,4,5.9,29.9
5.93333333333333,11.7681479329828,26.3851364542415,1.44812376743832,0.0281600738974626,4,5.9,29.9
5.96666666666667,11.7678241198725,26.4339173727099,1.47937565751626,0.0312518900779422,4,5.9,29.9
6,11.7674910575315,26.4838027521801,1.51454238416656,0.0351667266502986,4,5.9,29.9
6.03333333333333,11.7671476204442,26.5349384651689,1.55455761690983,0.0400152327432752,4,5.9,29.9
6.06666666666667,11.76679252557,26.5875012412476,1.60029054457561,0.0457329276657745,4,5.9,29.9
6.1,11.7664243607975,26.6416920203911,1.65231116841646,0.0520206238408472,4,5.9,29.9
6.13333333333333,11.7660416284403,26.6977259114945,1.71090724279109,0.0585960743746332,4,5.9,29.9
6.16666666666667,11.7656427790975,26.7558234134829,1.77612022867798,0.0652129858868908,4,5.9,29.9
6.2,11.765226239826,26.8162024757613,1.84774712810447,0.0716268994264888,4,5.9,29.9
6.23333333333333,11.7647904483168,26.8790697110261,1.92532289298415,0.0775757648796835,4,5.9,29.9
6.26666666666667,11.7643338804556,26.9446133475423,2.00822380881718,0.0829009158330314,4,5.9,29.9
6.3,11.7638550663862,27.0129990983659,2.09573172817349,0.0875079193563009,4,5.9,29.9
6.33333333333333,11.7633526027101,27.0843678737635,2.18708402538366,0.0913522972101721,4,5.9,29.9
6.36666666666667,11.762825163504,27.1588350043741,2.28151468244975,0.0944306570660975,4,5.9,29.9
6.4,11.7622715086622,27.2364911692951,2.37833403743481,0.0968193549850516,4,5.9,29.9
6.43333333333333,11.7616904771696,27.3174067937309,2.47700828078761,0.0986742433528036,4,5.9,29.9
6.46666666666667,11.7610809871804,27.4016359189816,2.57708092654826,0.100072645760649,4,5.9,29.9
6.5,11.7604420650833,27.4892184624601,2.67816018209135,0.101079255543088,4,5.9,29.9
6.53333333333333,11.7597728807726,27.5801822674676,2.77991192797227,0.101751745880923,4,5.9,29.9
