Time,x_ego,y_ego,velocity,acceleration,action,x_ped,y_ped
0,11.8,15.9,5,0,1,15.5,29.9
0.0333333333333333,11.7999963843224,16.0666666666622,0,-5,3,15.5,29.9
0.0666666666666667,11.7999963843224,16.0666666666622,3.94206987317973e-06,3.94206987317973e-06,5,15.5,29.9
0.1,11.7999963843224,16.0666666666622,6.09354603844522e-05,5.69933905112724e-05,5,15.5,29.9
0.133333333333333,11.7999963834865,16.0670412014874,0.0230153379323614,0.022954402471977,4,15.5,29.9
0.166666666666667,11.7999963806557,16.0681875704249,0.0466764483122246,0.0236611103798632,4,15.5,29.9
0.2,11.7999963717091,16.0702027595432,0.074850811583519,0.0281743632712944,4,15.5,29.9
0.233333333333333,11.7999963464681,16.0732103084815,0.106003974358474,0.0311531627749549,4,15.5,29.9
0.266666666666667,11.799996285302,16.0772897468803,0.139009305852004,0.0330053314935306,4,15.5,29.9
0.3,11.7999961550963,16.082459306732,0.171301504114297,0.032292198262293,4,15.5,29.9
0.333333333333333,11.7999959055127,16.0887429886592,0.205777934818197,0.0344764307038991,4,15.5,29.9
0.366666666666667,11.7999954654397,16.0961769425722,0.240261714410083,0.0344837795918863,4,15.5,29.9
0.4,11.7999947397838,16.1047565252954,0.274489359437729,0.0342276450276466,4,15.5,29.9
0.433333333333333,11.7999936074341,16.1144708696632,0.308329769902819,0.0338404104650893,4,15.5,29.9
0.466666666666667,11.7999919206876,16.1252764870932,0.339952057385468,0.0316222874826489,4,15.5,29.9
0.5,11.7999895063769,16.1371566235997,0.372788743064311,0.0328366856788437,4,15.5,29.9
0.533333333333333,11.7999861680241,16.1500929250482,0.403311264380483,0.0305225213161718,4,15.5,29.9
0.566666666666667,11.7999816893798,16.1640369250939,0.433242322695141,0.029931058314658,4,15.5,29.9
0.6,11.7999758391621,16.1789977486201,0.464312640973734,0.0310703182785929,4,15.5,29.9
0.633333333333333,11.7999683761324,16.1949839074311,0.494752521167559,0.0304398801938248,4,15.5,29.9
0.666666666666667,11.7999590550305,16.2119738232744,0.52453148619945,0.0297789650318908,4,15.5,29.9
0.7,11.7999476336536,16.2299450989983,0.553631154029519,0.0290996678300699,4,15.5,29.9
0.733333333333333,11.7999338808378,16.2488749005765,0.582042907138162,0.0284117531086424,4,15.5,29.9
0.766666666666667,11.7999175808732,16.2688266568698,0.61494706377724,0.0329041566390778,4,15.5,29.9
0.8,11.7998985359433,16.2899496565565,0.652312083669189,0.0373650198919495,4,15.5,29.9
0.833333333333333,11.7998765738891,16.3123057084246,0.688924868506452,0.0366127848372627,4,15.5,29.9
0.866666666666667,11.7998515535284,16.3358690060894,0.724750727332159,0.035825858825707,4,15.5,29.9
0.9,11.7998233670988,16.3606137665627,0.759817495601951,0.0350667682697923,4,15.5,29.9
0.933333333333333,11.7997919454976,16.3865151673036,0.794152803200611,0.0343353075986602,4,15.5,29.9
0.966666666666667,11.7997572619775,16.4135492511443,0.827781349073384,0.0336285458727729,4,15.5,29.9
1,11.7997193339354,16.4416928387442,0.860725499126584,0.0329441500532002,4,15.5,29.9
1.03333333333333,11.7996782225807,16.4709234597186,0.893005734718761,0.0322802355921771,4,15.5,29.9
1.06666666666667,11.7996340303731,16.5012192841806,0.924637727120373,0.0316319924016115,4,15.5,29.9
1.1,11.7995868963781,16.5325583939797,0.955595153994448,0.030957426874075,4,15.5,29.9
1.13333333333333,11.7995369897096,16.56491766306,0.985843191659968,0.0302480376655196,4,15.5,29.9
1.16666666666667,11.7994845009779,16.5982731119393,1.01536431017873,0.0295211185187628,4,15.5,29.9
1.2,11.7994296323143,16.6326003636542,1.04415114724373,0.0287868370650024,4,15.5,29.9
1.23333333333333,11.7993725864986,16.6678749417846,1.0722050761833,0.0280539289395625,4,15.5,29.9
1.26666666666667,11.7993135557306,16.7040725446731,1.099534709472,0.0273296332887087,4,15.5,29.9
1.3,11.7992527106851,16.7411692453377,1.12615357807289,0.0266188686008828,4,15.5,29.9
1.33333333333333,11.7991901904912,16.7791416579073,1.15208262776449,0.0259290496915994,4,15.5,29.9
1.36666666666667,11.7991260941091,16.8179674483129,1.17736397537325,0.0252813476087657,4,15.5,29.9
1.4,11.7990604737964,16.8576257583508,1.20204025397334,0.0246762786000922,4,15.5,29.9
1.43333333333333,11.7989933313354,16.8980970299437,1.22614716678609,0.0241069128127436,4,15.5,29.9
1.46666666666667,11.7989246171515,16.9393628023519,1.24971510089737,0.0235679341112773,4,15.5,29.9
1.5,11.7988542324353,16.9814055562942,1.27277032862485,0.0230552277274891,4,15.5,29.9
1.53333333333333,11.7987820342106,17.0242085927591,1.29533590668438,0.0225655780595215,4,15.5,29.9
1.56666666666667,11.798707843076,17.0677559377483,1.31743235127099,0.0220964445866163,4,15.5,29.9
1.6,11.7986314531381,17.1120322664772,1.33907814641696,0.0216457951459677,4,15.5,29.9
1.63333333333333,11.7985526434769,17.1570228417785,1.36029008028393,0.0212119338669692,4,15.5,29.9
1.66666666666667,11.7984711903893,17.2027133969878,1.38107719923994,0.0207871189560076,4,15.5,29.9
1.7,11.7983868797013,17.2490897487611,1.40143810652852,0.0203609072885877,4,15.5,29.9
1.73333333333333,11.798299517924,17.2961377168768,1.42137510604207,0.0199369995135423,4,15.5,29.9
1.76666666666667,11.7982089414838,17.343843260568,1.440894044586,0.0195189385439347,4,15.5,29.9
1.8,11.7981150235216,17.3921925759279,1.46000313494152,0.0191090903555167,4,15.5,29.9
1.83333333333333,11.7980176778014,17.4411721599048,1.47871210787183,0.0187089729303096,4,15.5,29.9
1.86666666666667,11.797916859517,17.4907688502946,1.49703160519371,0.0183194973218874,4,15.5,29.9
1.9,11.7978125630595,17.5409698486043,1.51497274907074,0.0179411438770261,2,15.5,29.9
1.93333333333333,11.797704817062,17.5917627308019,1.53254683969206,0.0175740906213191,2,15.5,29.9
1.96666666666667,11.7975936772612,17.6431354495981,1.54976514608227,0.0172183063902085,2,15.5,29.9
2,11.7974792178773,17.6950763309039,1.566638764116,0.0168736180337294,2,15.5,29.9
2.03333333333333,11.7973615222945,17.7475740663734,1.58317855531919,0.016539791203195,2,15.5,29.9
2.06666666666667,11.7972406738866,17.8006176572663,1.59939005463544,0.0162114993162423,2,15.5,29.9
2.1,11.7971167479616,17.8541960879345,1.61526865431015,0.0158785996747115,2,15.5,29.9
2.13333333333333,11.7969898049264,17.9082982268535,1.63081303752016,0.0155443832100102,2,15.5,29.9
2.16666666666667,11.7968598850373,17.962912967887,1.64602580330077,0.0152127657806085,2,15.5,29.9
2.2,11.7967270052222,18.0180293388098,1.66091221491167,0.0148864116109009,2,15.5,29.9
2.23333333333333,11.7965911579889,18.0736365742042,1.67547929510916,0.0145670801974889,2,15.5,29.9
2.26666666666667,11.796452312258,18.1297241626712,1.68973517582105,0.0142558807118964,2,15.5,29.9
2.3,11.7963104158292,18.1862818756376,1.70368863397533,0.0139534581542782,2,15.5,29.9
2.33333333333333,11.7961653991106,18.2432997830819,1.71734876319051,0.0136601292151837,2,15.5,29.9
2.36666666666667,11.7960171796989,18.3007682600522,1.73072474431785,0.0133759811273382,2,15.5,29.9
2.4,11.7958656674045,18.3586779867936,1.74382568764138,0.0131009433235318,2,15.5,29.9
2.43333333333333,11.7957107693414,18.4170199445218,1.7566605267912,0.0128348391498136,2,15.5,29.9
2.46666666666667,11.7955523947537,18.4757854083094,1.76923794977437,0.0125774229831703,2,15.5,29.9
2.5,11.795390459302,18.5349659381361,1.78156635647106,0.012328406696688,2,15.5,29.9
2.53333333333333,11.7952248885953,18.594553368849,1.79365383484537,0.0120874783743192,2,15.5,29.9
2.56666666666667,11.7950556208051,18.6545397995596,1.80550815025224,0.0118543154068691,2,15.5,29.9
2.6,11.7948826082616,18.714917578948,1.81713625916615,0.0116281089139059,2,15.5,29.9
2.63333333333333,11.7947058180466,18.7756792482074,1.82854279171027,0.0114065325441224,2,15.5,29.9
2.66666666666667,11.7945252315854,18.836817451001,1.83972697885478,0.0111841871445073,2,15.5,29.9
2.7,11.7943408439289,18.8983244746893,1.85066902921091,0.0109420503561319,2,15.5,29.9
2.73333333333333,11.7941526619503,18.9601919775813,1.86135633315916,0.0106873039482476,2,15.5,29.9
2.76666666666667,11.7939607003136,19.0224116133561,1.87180047844075,0.0104441452815955,2,15.5,29.9
2.8,11.7937649771696,19.084975539232,1.88201582922315,0.0102153507823979,2,15.5,29.9
2.83333333333333,11.7935655110734,19.1478761782949,1.89200323599934,0.0099874067761887,2,15.5,29.9
2.86666666666667,11.793362318297,19.2111058909703,1.90176083793211,0.00975760193276987,2,15.5,29.9
2.9,11.7931554099355,19.2746570249759,1.91128939621736,0.00952855828524801,2,15.5,29.9
2.93333333333333,11.7929447897243,19.3385219834331,1.92059155412481,0.00930215790745303,2,15.5,29.9
2.96666666666667,11.7927304528226,19.4026932644143,1.92966914077278,0.00907758664797131,2,15.5,29.9
3,11.7925123859119,19.4671633445238,1.93851994414049,0.00885080336770749,2,15.5,29.9
3.03333333333333,11.7922905680269,19.531924666705,1.94714507428627,0.00862513014577804,2,15.5,29.9
3.06666666666667,11.7920649716733,19.596969855281,1.95555515356553,0.00841007927926252,2,15.5,29.9
3.1,11.7918355643203,19.6622919904375,1.96376484952122,0.00820969595568499,2,15.5,29.9
3.13333333333333,11.7916023107686,19.7278845930129,1.97178478294011,0.00801993341889218,2,15.5,29.9
3.16666666666667,11.7913651760842,19.7937413569397,1.97961489613965,0.00783011319953797,2,15.5,29.9
3.2,11.7911241281666,19.8598559376317,1.98725473255874,0.00763983641909127,2,15.5,29.9
3.23333333333333,11.7908791392615,19.9262220020319,1.99470398976382,0.00744925720508238,2,15.5,29.9
3.26666666666667,11.7906301873671,19.9928330936874,2.00195615179141,0.00725216202759205,2,15.5,29.9
3.3,11.7903772568786,20.0596825733223,2.00900792142128,0.00705176962986398,2,15.5,29.9
3.33333333333333,11.7901203382079,20.1267637492553,2.01585797199294,0.0068500505716651,2,15.5,29.9
3.36666666666667,11.7898594275685,20.1940697703616,2.02249801378745,0.00664004179451183,2,15.5,29.9
3.4,11.7895945264374,20.2615935327944,2.02892299121781,0.00642497743035442,2,15.5,29.9
3.43333333333333,11.7893256401224,20.3293278657067,2.03513349715063,0.00621050593282346,2,15.5,29.9
3.46666666666667,11.7890527764194,20.3972656625446,2.04113212479686,0.00599862764623005,2,15.5,29.9
3.5,11.7887759445731,20.4653999183225,2.04692278642705,0.00579066163018949,2,15.5,29.9
3.53333333333333,11.7884951542505,20.5337238022181,2.05251192160077,0.00558913517372206,2,15.5,29.9
3.56666666666667,11.7882104146581,20.6022307273875,2.05790757949265,0.00539565789188234,2,15.5,29.9
3.6,11.7879217338821,20.6709143912453,2.0631186627098,0.0052110832171457,2,15.5,29.9
3.63333333333333,11.7876291184203,20.7397687947043,2.06815440836923,0.00503574565943099,2,15.5,29.9
3.66666666666667,11.7873325728736,20.8087882471307,2.0730240405038,0.00486963213456981,2,15.5,29.9
3.7,11.7870320997761,20.8779673618705,2.07773654492682,0.00471250442302162,2,15.5,29.9
3.73333333333333,11.7867276997036,20.9473009983968,2.08229541984185,0.00455887491502205,2,15.5,29.9
3.76666666666667,11.7864193725408,21.0167838867954,2.08669101807022,0.00439559822837055,2,15.5,29.9
3.8,11.7861071182719,21.0864104653063,2.09091731880453,0.00422630073431485,2,15.5,29.9
3.83333333333333,11.7857909368009,21.156175070431,2.09497387437241,0.00405655556787732,2,15.5,29.9
3.86666666666667,11.7854708279844,21.2260720897975,2.09886393602865,0.00389006165624028,2,15.5,29.9
3.9,11.7851467918786,21.2960960617023,2.10259310375629,0.00372916772764276,2,15.5,29.9
3.93333333333333,11.7848188290959,21.3662417364933,2.10616836754606,0.00357526378976614,2,15.5,29.9
3.96666666666667,11.7844869411703,21.4365041110642,2.10959743797072,0.00342907042466312,2,15.5,29.9
4,11.7841511308505,21.5068784447458,2.11288828826394,0.00329085029321741,2,15.5,29.9
4.03333333333333,11.7838114022553,21.5773602626222,2.11604884934449,0.0031605610805574,2,15.5,29.9
4.06666666666667,11.7834677608562,21.6479453506058,2.11908681415139,0.00303796480689078,2,15.5,29.9
4.1,11.7831202132829,21.7186297453502,2.12200951908519,0.00292270493380897,2,15.5,29.9
4.13333333333333,11.7827688767857,21.7893806768536,2.12308234777997,0.00107282869477165,2,15.5,29.9
4.16666666666667,11.7824137624163,21.8601947817291,2.12579919398949,0.00271684620952728,2,15.5,29.9
4.2,11.7820547764454,21.9310971081107,2.12837295780788,0.00257376381838759,2,15.5,29.9
4.23333333333333,11.7816919374567,22.0020829343475,2.1308082654004,0.00243530759252142,2,15.5,29.9
4.26666666666667,11.7813252614997,22.0731478482837,2.13311849517426,0.00231022977385908,2,15.5,29.9
4.3,11.7809547651327,22.1442868993837,2.13525765377001,0.00213915859575176,2,15.5,29.9
4.33333333333333,11.7805804647868,22.2154947745228,2.13724972512131,0.00199207135129376,2,15.5,29.9
4.36666666666667,11.7802026113197,22.2867089769738,2.13564505391261,-0.00160467120870189,2,15.5,29.9
4.4,11.7798213389569,22.3578972925593,2.13570480432016,5.97504075536825e-05,2,15.5,29.9
4.43333333333333,11.7794364258652,22.429115300625,2.13742777247672,0.00172296815656026,2,15.5,29.9
4.46666666666667,11.7790477686596,22.500389608647,2.13908177590614,0.00165400342942146,2,15.5,29.9
4.5,11.7786553819487,22.571717730732,2.14065652116392,0.00157474525777968,2,15.5,29.9
4.53333333333333,11.7782595290284,22.6430392464217,2.13869140690989,-0.00196511425403223,2,15.5,29.9
4.56666666666667,11.7778603475272,22.7143236646927,2.13843750586078,-0.000253901049112937,2,15.5,29.9
4.6,11.7774577235409,22.7855993353992,2.13816943531345,-0.000268070547322363,2,15.5,29.9
4.63333333333333,11.7770516694512,22.8568659412608,2.13789604828622,-0.000273387027236893,2,15.5,29.9
4.66666666666667,11.7766421962184,22.9281234182948,2.1376237961059,-0.000272252180316901,2,15.5,29.9
4.7,11.7762294465064,22.9993428682217,2.13561907349854,-0.00200472260735429,2,15.5,29.9
4.73333333333333,11.7758135632529,23.0704960619272,2.13365455709178,-0.00196451640676809,2,15.5,29.9
4.76666666666667,11.7753944192791,23.1416138006935,2.13349352390423,-0.0001610331875459,2,15.5,29.9
4.8,11.7749718838526,23.2127270339777,2.13338312380382,-0.000110400100415298,2,15.5,29.9
4.83333333333333,11.7745459586755,23.2838372362784,2.13331108510207,-7.2038701745214e-05,2,15.5,29.9
4.86666666666667,11.77411678237,23.3549165054632,2.13152990030194,-0.00178118480012657,2,15.5,29.9
4.9,11.7736844921273,23.42593722002,2.12980262179948,-0.00172727850246535,2,15.5,29.9
4.93333333333333,11.7732489397742,23.4969305121076,2.1298852075014,8.25857019206566e-05,2,15.5,29.9
4.96666666666667,11.7728099736721,23.5679274358662,2.13001854204806,0.000133334546660535,2,15.5,29.9
5,11.7723675828834,23.6389293865915,2.13018564154571,0.00016709949765481,2,15.5,29.9
5.03333333333333,11.7719219023891,23.7099082517787,2.12863586006028,-0.00154978148543083,2,15.5,29.9
5.06666666666667,11.7714730680666,23.780836123346,2.12713071553854,-0.00150514452174155,2,15.5,29.9
5.1,11.7710209189319,23.8517438069564,2.12742510648305,0.000294390944505452,2,15.5,29.9
5.13333333333333,11.770565293565,23.9226619919847,2.12775871294894,0.00033360646588898,2,15.5,29.9
5.16666666666667,11.770106334823,23.9935626621323,2.12637608662045,-0.00138262632849129,2,15.5,29.9
5.2,11.7696440337241,24.0644468894722,2.12677336881997,0.000397282199524174,2,15.5,29.9
5.23333333333333,11.769178384723,24.1353157577048,2.12545610517539,-0.00131726364458018,2,15.5,29.9
5.26666666666667,11.7687095395107,24.2061413546128,2.1241812277141,-0.00127487746128629,2,15.5,29.9
5.3,11.7682374961037,24.2769253423844,2.12296278437548,-0.00121844333862597,2,15.5,29.9
5.33333333333333,11.7677624127938,24.3476410842248,2.12008974422961,-0.00287304014587164,2,15.5,29.9
5.36666666666667,11.7672844536547,24.4182622898504,2.11729262529667,-0.00279711893293433,2,15.5,29.9
5.4,11.7668036312523,24.4887915526019,2.11457494360465,-0.00271768169202424,2,15.5,29.9
5.43333333333333,11.766319962444,24.5592315623887,2.11193905188573,-0.00263589171891399,2,15.5,29.9
5.46666666666667,11.7658334658991,24.6295850720494,2.1093864122998,-0.00255263958593144,2,15.5,29.9
5.5,11.765344658232,24.6997684781557,2.10173871660382,-0.00764769569598167,2,15.5,29.9
5.53333333333333,11.7648540633934,24.7696990753237,2.09422674545007,-0.00751197115374547,2,15.5,29.9
5.56666666666667,11.7643617137973,24.8393821038754,2.08689183291295,-0.00733491253712648,2,15.5,29.9
5.6,11.7638676431233,24.9088240332036,2.07976679344678,-0.00712503946616438,2,15.5,29.9
5.63333333333333,11.7633720557059,24.9780032663188,2.07113509861931,-0.0086316948274705,2,15.5,29.9
5.66666666666667,11.7628754999581,25.046841503556,2.05930989728516,-0.0118252013341511,2,15.5,29.9
5.7,11.7623787081882,25.1152322844442,2.04429528841829,-0.0150146088668754,2,15.5,29.9
5.73333333333333,11.7618826058005,25.1830414439218,2.0244259478142,-0.0198693406040893,3,15.5,29.9
5.76666666666667,11.7613886688749,25.2500508983796,1.99633366176409,-0.0280922860501043,3,15.5,29.9
5.8,11.7608982286323,25.3160750680323,1.96532557356583,-0.031008088198258,3,15.5,29.9
5.83333333333333,11.7604121198999,25.3810183896538,1.93148843186523,-0.0338371417006049,3,15.5,29.9
5.86666666666667,11.7599312170819,25.4447868141916,1.89484196005287,-0.0366464718123631,3,15.5,29.9
5.9,11.7594564263804,25.5072877221032,1.85544560668712,-0.0393963533657424,3,15.5,29.9
5.93333333333333,11.7589884892516,25.5684592112139,1.8150839977127,-0.0403616089744268,3,15.5,29.9
5.96666666666667,11.7585283392307,25.628212088188,1.77033088088332,-0.0447531168293747,3,15.5,29.9
6,11.7580769131057,25.6864578243412,1.72465572180083,-0.0456751590824964,3,15.5,29.9
6.03333333333333,11.7576351517482,25.7431077479239,1.67458614248267,-0.0500695793181518,3,15.5,29.9
6.06666666666667,11.7572043619373,25.7980164115224,1.62018869585538,-0.0543974466272921,3,15.5,29.9
6.1,11.7567858361877,25.8510406938382,1.56153526955224,-0.0586534263031451,3,15.5,29.9
6.13333333333333,11.7563808526265,25.9020399863918,1.49869528637104,-0.062839983181199,3,15.5,29.9
6.16666666666667,11.755991256667,25.9507891346755,1.4265364587041,-0.0721588276669376,3,15.5,29.9
6.2,11.7556190847297,25.9970368161149,1.34862334248289,-0.0779131162212141,3,15.5,29.9
6.23333333333333,11.7552657948248,26.0406218333704,1.26678772892535,-0.0818356135575415,3,15.5,29.9
6.26666666666667,11.7549330413973,26.081356997121,1.17764227398437,-0.0891454549409723,3,15.5,29.9
6.3,11.754623653308,26.1188851857432,1.07439177036493,-0.103250503619442,3,15.5,29.9
6.33333333333333,11.7543410439504,26.1527686144565,0.959006386645425,-0.115385383719506,3,15.5,29.9
6.36666666666667,11.7540878116948,26.1826948386662,0.837004593599196,-0.122001793046229,3,15.5,29.9
6.4,11.7538653320692,26.2085332613361,0.713743977611124,-0.123260615988072,3,15.5,29.9
6.43333333333333,11.7536745613114,26.2302139119453,0.587551490303435,-0.126192487307689,3,15.5,29.9
6.46666666666667,11.7535174019716,26.2475264142441,0.451700022803998,-0.135851467499437,3,15.5,29.9
6.5,11.7533958683991,26.2602387649075,0.311579975834518,-0.140120046969479,3,15.5,29.9
6.53333333333333,11.7533104808932,26.2683258707408,0.174233964660323,-0.137346011174195,3,15.5,29.9
6.56666666666667,11.7532608444309,26.2718822501219,0.0400544539651145,-0.134179510695209,3,15.5,29.9
6.6,11.7532368983574,26.2723714175062,0.0345215787607865,-0.005532875204328,5,15.5,29.9
6.63333333333333,11.7532289511808,26.2712313233958,0.00398797259387631,-0.0305336061669102,3,15.5,29.9
6.66666666666667,11.7532289511808,26.2712313233958,0.00260336098856653,-0.00138461160530978,5,15.5,29.9
6.7,11.7532289511808,26.2712313233958,0.0005679839406044,-0.00203537704796213,5,15.5,29.9
6.73333333333333,11.7532289511808,26.2712313233958,0.00197215612142468,0.00140417218082028,5,15.5,29.9
6.76666666666667,11.7532289511808,26.2712313233958,0.00480880152531752,0.00283664540389284,5,15.5,29.9
6.8,11.7532289511808,26.2712313233958,0.00770123447125197,0.00289243294593446,5,15.5,29.9
6.83333333333333,11.7532289511808,26.2712313233958,0.0104046991020633,0.0027034646308113,5,15.5,29.9
6.86666666666667,11.7532289511808,26.2712313233958,0.0126952542605322,0.00229055515846894,5,15.5,29.9
6.9,11.7532289511808,26.2712313233958,0.0143894999946295,0.00169424573409724,5,15.5,29.9
6.93333333333333,11.7532289511808,26.2712313233958,0.0153582745921474,0.00096877459751799,5,15.5,29.9
