Time,x_ego,y_ego,velocity,acceleration,action,x_ped,y_ped
0,11.8,8.9,7,0,1,15.5,29.9
0.0333333333333333,11.7999950604608,9.13327037938529,6.99615579158591,-0.00384420841408595,1,15.5,29.9
0.0666666666666667,11.7999641537382,9.36640659845764,6.99196960422518,-0.00418618736073029,1,15.5,29.9
0.1,11.7998905520409,9.59940075209606,6.98769544184844,-0.00427416237673928,1,15.5,29.9
0.133333333333333,11.7997655810579,9.83225377113676,6.98349860736444,-0.00419683448399955,1,15.5,29.9
0.166666666666667,11.7995862156853,10.0649678376877,6.97935738040605,-0.00414122695839758,1,15.5,29.9
0.2,11.7993529256513,10.2975445186978,6.97525616170541,-0.00410121870063485,1,15.5,29.9
0.233333333333333,11.7990680251544,10.5299849414976,6.97118378101847,-0.00407238068694493,1,15.5,29.9
0.266666666666667,11.7987345810106,10.762289919801,6.96713225990889,-0.00405152110958085,1,15.5,29.9
0.3,11.7983558004211,10.9944600437594,6.9630959060409,-0.00403635386799106,1,15.5,29.9
0.333333333333333,11.7979347550068,11.2264957441096,6.95907065623609,-0.00402524980480745,1,15.5,29.9
0.366666666666667,11.7974742907425,11.4583973377913,6.95505360589538,-0.00401705034070599,1,15.5,29.9
0.4,11.7969770045123,11.6901650603639,6.95104267526378,-0.00401093063160474,1,15.5,29.9
0.433333333333333,11.7964452160971,11.9217990890234,6.94703637379668,-0.00400630146710057,1,15.5,29.9
0.466666666666667,11.7958809116185,12.1532995589215,6.94303363351999,-0.00400274027668424,1,15.5,29.9
0.5,11.7952856690011,12.3846665747237,6.93903369038362,-0.00399994313637198,1,15.5,29.9
0.533333333333333,11.7946605929875,12.6159002188081,6.93503599896081,-0.00399769142281325,1,15.5,29.9
0.566666666666667,11.7940062876953,12.8470005571267,6.93104017055675,-0.00399582840405621,1,15.5,29.9
0.6,11.793322883637,13.0779676434614,6.92704592810186,-0.0039942424548931,1,15.5,29.9
0.633333333333333,11.7926101201252,13.3088015225876,6.92305307338305,-0.00399285471880528,1,15.5,29.9
0.666666666666667,11.7918674691378,13.5395022326914,6.91906146350104,-0.00399160988200986,1,15.5,29.9
0.7,11.7910942772438,13.7700698072558,6.91507099423851,-0.00399046926253188,1,15.5,29.9
0.733333333333333,11.790289899824,14.0005042765421,6.91108158854202,-0.00398940569649131,1,15.5,29.9
0.766666666666667,11.7894538060346,14.230805668735,6.90709318871157,-0.00398839983044841,1,15.5,29.9
0.8,11.7885856415947,14.4609740107853,6.9031057512092,-0.00398743750237252,1,15.5,29.9
0.833333333333333,11.7876852467037,14.6910093289842,6.89911924324695,-0.00398650796224853,1,15.5,29.9
0.866666666666667,11.7867526355242,14.9209116493028,6.89513364050523,-0.00398560274171711,1,15.5,29.9
0.9,11.7857879498232,15.1506809975467,6.89114892549128,-0.00398471501395292,1,15.5,29.9
0.933333333333333,11.7847914017202,15.3803173993835,6.88716508620033,-0.00398383929095214,1,15.5,29.9
0.966666666666667,11.7837632192827,15.6098208803015,6.88318211489335,-0.00398297130697589,1,15.5,29.9
1,11.7827036049135,15.8391914655502,6.87920000693704,-0.00398210795630849,1,15.5,29.9
1.03333333333333,11.7816127114646,16.0684291801003,6.87521875974062,-0.00398124719641935,1,15.5,29.9
1.06666666666667,11.7804906361299,16.2975340486412,6.87123837185913,-0.00398038788149879,1,15.5,29.9
1.1,11.7793374284337,16.5265060956182,6.86725884232134,-0.00397952953778447,1,15.5,29.9
1.13333333333333,11.7781531065939,16.7553453453005,6.86328017020375,-0.00397867211758651,1,15.5,29.9
1.16666666666667,11.776937676234,16.9840518218608,6.85930235443033,-0.00397781577342915,1,15.5,29.9
1.2,11.7756911465081,17.2126255494502,6.85532539374739,-0.00397696068293207,1,15.5,29.9
1.23333333333333,11.7744135406009,17.4410665522525,6.85134928680805,-0.00397610693934247,1,15.5,29.9
1.26666666666667,11.7731048996617,17.6693748545129,6.84737403230093,-0.00397525450712521,1,15.5,29.9
1.3,11.7717652810041,17.8975504805391,6.8433996290702,-0.00397440323073006,1,15.5,29.9
1.33333333333333,11.770394752531,18.1255934546831,6.83942607619232,-0.00397355287787438,1,15.5,29.9
1.36666666666667,11.7689933857374,18.3535038013111,6.83545337299569,-0.00397270319662724,1,15.5,29.9
1.4,11.7675612493872,18.5812815447745,6.83148151902762,-0.00397185396807842,1,15.5,29.9
1.43333333333333,11.7660984052753,18.8089267093871,6.82751051398567,-0.0039710050419437,1,15.5,29.9
1.46666666666667,11.7646049066404,19.0364393194156,6.82354035763588,-0.00397015634979248,1,15.5,29.9
1.5,11.763080799015,19.2638193990813,6.81957104973851,-0.00396930789737304,1,15.5,29.9
1.53333333333333,11.7615261227649,19.4910669725733,6.81560258999616,-0.00396845974234505,1,15.4916666666667,29.9
1.56666666666667,11.7599409163333,19.7181820640658,6.81163497803035,-0.0039676119658143,1,15.4666666666667,29.9
1.6,11.7583252192625,19.9451646977358,6.80766821338476,-0.00396676464558787,1,15.425,29.9
1.63333333333333,11.7566790743266,20.1720148977774,6.80370229554788,-0.00396591783687494,1,15.3752276867031,29.9
1.66666666666667,11.7550025284688,20.3987326884084,6.79973722398486,-0.00396507156302661,1,15.3259107468124,29.9
1.7,11.7532956325836,20.6253180938711,6.79577299816876,-0.00396422581609901,1,15.2770491803279,29.9
1.73333333333333,11.7515584404481,20.8517711384262,6.79180961760389,-0.00396338056487,1,15.2286429872495,29.9
1.76666666666667,11.7497910072327,21.0780918463442,6.78784708183729,-0.00396253576660133,1,15.1806921675774,29.9
1.8,11.7479933880254,21.3042802418958,6.78388539045823,-0.00396169137905744,1,15.1331967213115,29.9
1.83333333333333,11.7461656367022,21.5303363493436,6.77992454308841,-0.00396084736981805,1,15.0861566484517,29.9
1.86666666666667,11.7443078053216,21.7562601929379,6.77596453936706,-0.00396000372135585,1,15.0395719489982,29.9
1.9,11.7424199440611,21.9820517969149,6.77200537893547,-0.00395916043158362,1,14.9934426229508,29.9
1.93333333333333,11.7405021015869,22.2077111854994,6.76804706142468,-0.00395831751079623,1,14.9477686703097,29.9
1.96666666666667,11.7385543256703,22.4332383829084,6.76408958644821,-0.00395747497647037,1,14.9025500910747,29.9
2,11.7365766638556,22.6586334133562,6.7601329536006,-0.00395663284761039,1,14.8577868852459,29.9
2.03333333333333,11.7345691640134,22.8838963010585,6.75617716246055,-0.00395579114004452,1,14.8134790528233,29.9
2.06666666666667,11.7325318746804,23.1090270702353,6.75222221259708,-0.00395494986347167,1,14.7696265938069,29.9
2.1,11.730464845158,23.3340257451118,6.74826810357645,-0.0039541090206292,1,14.7262295081967,29.9
2.13333333333333,11.7283681254034,23.5588923499181,6.74431483496826,-0.00395326860819001,1,14.6832877959927,29.9
2.16666666666667,11.7262417657876,23.783626908887,6.7403624063494,-0.00395242861885947,1,14.6408014571949,29.9
2.2,11.7240858168072,24.0082294462521,6.73641081730551,-0.00395158904388726,1,14.5987704918033,29.9
2.23333333333333,11.721900328828,24.2326999862455,6.73246006743017,-0.00395074987534194,1,14.5571948998179,29.9
2.26666666666667,11.7196853519118,24.4570385530959,6.7285101563225,-0.00394991110767595,1,14.5160746812386,29.9
2.3,11.7174409357478,24.6812451710286,6.72456108358411,-0.00394907273838463,1,14.4754098360656,29.9
2.33333333333333,11.7151671296795,24.9053198642649,6.7206128488163,-0.00394823476781347,1,14.4352003642987,29.9
2.36666666666667,11.7128658755734,25.1290602964918,6.70452352936005,-0.016089319456249,1,14.3954462659381,29.9
2.4,11.710543000108,25.3518605344957,6.66421817628757,-0.0403053530724815,3,14.3561475409836,29.9
2.43333333333333,11.7082056471899,25.5730002967385,6.60491011305644,-0.0593080632311302,3,14.3173041894353,29.9
2.46666666666667,11.7058618520528,25.7917016466002,6.51792661132341,-0.0869835017330285,3,14.2789162112933,29.9
2.5,11.703522881354,26.0068979569824,6.39461804706582,-0.123308564257585,3,14.2409836065574,29.9
2.53333333333333,11.7012042764165,26.2171482152761,6.22116987989061,-0.173448167175212,3,14.2035063752277,29.9
2.56666666666667,11.6989213905769,26.4210984756469,6.01662052296566,-0.204549356924947,3,14.1664845173042,29.9
2.6,11.6966847181342,26.6179425076987,5.79479663943664,-0.221823883529028,3,14.1299180327869,29.9
2.63333333333333,11.6944999620917,26.807393033321,5.57301085120841,-0.221785788228231,3,14.0938069216758,29.9
2.66666666666667,11.6923702014111,26.9894513196903,5.3512647042799,-0.221746146928503,3,14.0581511839709,29.9
2.7,11.6902987355987,27.1641186745587,5.129558591575,-0.221706112704901,3,14.0229508196721,29.9
2.73333333333333,11.6882889792652,27.3313964276929,4.90789189814354,-0.221666693431466,3,13.9882058287796,29.9
2.76666666666667,11.6863443603851,27.4912859172397,4.68626329447992,-0.221628603663613,3,13.9539162112933,29.9
2.8,11.68446822975,27.6437884797072,4.46467115262721,-0.221592141852716,3,13.9200819672131,29.9
2.83333333333333,11.6826637989299,27.7889044819817,4.24303036048209,-0.221640792145116,3,13.9200819672131,29.9
2.86666666666667,11.6809341144963,27.9266311428443,4.02129691034864,-0.221733450133447,3,13.9200819672131,29.9
2.9,11.6792819890908,28.0569663728803,3.79951831641663,-0.221778593932012,3,13.9200819672131,29.9
2.93333333333333,11.6777099896423,28.1799094140628,3.57772933513175,-0.22178898128488,3,13.9200819672131,29.9
2.96666666666667,11.6762204547364,28.2954604549375,3.3559555912286,-0.221773743903153,3,13.9200819672131,29.9
3,11.6748155224153,28.4036203549789,3.1342159721137,-0.221739619114899,3,13.9200819672131,29.9
3.03333333333333,11.6734971619103,28.5043904471582,2.91252418919482,-0.221691782918878,3,13.9200819672131,29.9
3.06666666666667,11.6722672032287,28.5977723965174,2.69088982484109,-0.221634364353732,3,13.9200819672131,29.9
3.1,11.6711273599397,28.6837680988257,2.4693191038881,-0.221570720952992,3,13.9200819672131,29.9
3.13333333333333,11.6700792331956,28.7623796077977,2.24781555051394,-0.221503553374157,3,13.9200819672131,29.9
3.16666666666667,11.6691241996639,28.833613020148,2.02684962727237,-0.220965923241573,3,13.9200819672131,29.9
3.2,11.6682629073046,28.8975170961133,1.80830545222836,-0.218544175044011,3,13.9200819672131,29.9
3.23333333333333,11.667495205186,28.9541898979418,1.59302824171332,-0.215277210515034,3,13.9200819672131,29.9
3.26666666666667,11.6668205584161,29.0037456953593,1.38130588337302,-0.211722358340303,3,13.9200819672131,29.9
3.3,11.6662381784948,29.0463059879817,1.17329781930006,-0.208008064072955,3,13.9200819672131,29.9
3.33333333333333,11.6657470847907,29.0819963159739,0.969108612876501,-0.204189206423563,3,13.9200819672131,29.9
3.36666666666667,11.6653461018986,29.1109482020761,0.769002278974647,-0.200106333901854,3,13.9200819672131,29.9
3.4,11.6650338722764,29.133299593024,0.573026636076073,-0.195975642898574,3,13.9200819672131,29.9
3.43333333333333,11.6648089512276,29.1491883277323,0.381225983184879,-0.191800652891195,3,13.9200819672131,29.9
3.46666666666667,11.6646697838337,29.1587550723456,0.193664751596625,-0.187561231588254,3,13.9200819672131,29.9
3.5,11.6646147438184,29.1621410877218,0.0108702490043447,-0.18279450259228,3,13.9200819672131,29.9
3.53333333333333,11.664612041298,29.1619358791626,0.00648383130048562,-0.00438641770385912,5,13.9200819672131,29.9
3.56666666666667,11.6646174745954,29.161730770663,0.00165449439992185,-0.00482933690056378,5,13.9200819672131,29.9
3.6,11.6646174745954,29.161730770663,0.00222429772687683,0.00056980332695498,5,13.9200819672131,29.9
3.63333333333333,11.6646174745954,29.161730770663,0.00364150107957017,0.00141720335269334,5,13.9200819672131,29.9
3.66666666666667,11.6646174745954,29.161730770663,0.00569511256177878,0.00205361148220862,5,13.9200819672131,29.9
3.7,11.6646174745954,29.161730770663,0.00810985628376975,0.00241474372199096,5,13.9200819672131,29.9
3.73333333333333,11.6646174745954,29.161730770663,0.0105850941656508,0.00247523788188108,5,13.9200819672131,29.9
3.76666666666667,11.6646174745954,29.161730770663,0.0128297279598113,0.00224463379416046,5,13.9200819672131,29.9
3.8,11.6646174745954,29.161730770663,0.0145908189683877,0.00176109100857643,5,13.9200819672131,29.9
3.83333333333333,11.6646174745954,29.161730770663,0.0156745391960035,0.00108372022761575,5,13.9200819672131,29.9
3.86666666666667,11.6646174745954,29.161730770663,0.0159589021073907,0.000284362911387226,5,13.9200819672131,29.9
3.9,11.6646174745954,29.161730770663,0.0153984593790031,-0.000560442728387589,5,13.9200819672131,29.9
3.93333333333333,11.6646174745954,29.161730770663,0.0140217537153527,-0.0013767056636504,5,13.9200819672131,29.9
3.96666666666667,11.6646174745954,29.161730770663,0.0119227646689518,-0.00209898904640088,5,13.9200819672131,29.9
4,11.6646174745954,29.161730770663,0.00924786712461162,-0.0026748975443402,5,13.9200819672131,29.9
4.03333333333333,11.6646174745954,29.161730770663,0.00617994633307534,-0.00306792079153629,5,13.9200819672131,29.9
4.06666666666667,11.6646174745954,29.161730770663,0.0029212951994051,-0.00325865113367024,5,13.9200819672131,29.9
4.1,11.6646174745954,29.161730770663,0.000323217354224979,-0.00259807784518012,5,13.9200819672131,29.9
4.13333333333333,11.6646174745954,29.161730770663,0.00336144532382484,0.00303822796959986,5,13.9200819672131,29.9
4.16666666666667,11.6646174745954,29.161730770663,0.00602675737875899,0.00266531205493415,5,13.9200819672131,29.9
4.2,11.6646174745954,29.161730770663,0.00818766420655408,0.00216090682779509,5,13.9200819672131,29.9
4.23333333333333,11.6646174745954,29.161730770663,0.00975394420788943,0.00156628000133534,5,13.9200819672131,29.9
4.26666666666667,11.6646174745954,29.161730770663,0.0106792296982491,0.000925285490359622,5,13.9200819672131,29.9
4.3,11.6646174745954,29.161730770663,0.010960276250799,0.000281046552549997,5,13.9200819672131,29.9
4.33333333333333,11.6646174745954,29.161730770663,0.0106333465599613,-0.000326929690837712,5,13.9200819672131,29.9
4.36666666666667,11.6646174745954,29.161730770663,0.00976828994603353,-0.000865056613927811,5,13.9200819672131,29.9
4.4,11.6646174745954,29.161730770663,0.00846098728266833,-0.00130730266336519,5,13.9200819672131,29.9
4.43333333333333,11.6646174745954,29.161730770663,0.00682486118134613,-0.0016361261013222,5,13.9200819672131,29.9
4.46666666666667,11.6646174745954,29.161730770663,0.00498212886710694,-0.0018427323142392,5,13.9200819672131,29.9
4.5,11.6646174745954,29.161730770663,0.0030554091942945,-0.00192671967281244,5,13.9200819672131,29.9
4.53333333333333,11.6646174745954,29.161730770663,0.00116019624526911,-0.00189521294902539,5,13.9200819672131,29.9
4.56666666666667,11.6646174745954,29.161730770663,0.000601408777952859,-0.00055878746731625,5,13.9200819672131,29.9
4.6,11.6646174745954,29.161730770663,0.00214544697094819,0.00154403819299533,5,13.9200819672131,29.9
4.63333333333333,11.6646174745954,29.161730770663,0.00340920367206351,0.00126375670111532,5,13.9200819672131,29.9
4.66666666666667,11.6646174745954,29.161730770663,0.0043526572405827,0.00094345356851919,5,13.9200819672131,29.9
4.7,11.6646174745954,29.161730770663,0.00495837650898832,0.00060571926840562,5,13.9200819672131,29.9
4.73333333333333,11.6646174745954,29.161730770663,0.00523005573860473,0.000271679229616408,5,13.9200819672131,29.9
4.76666666666667,11.6646174745954,29.161730770663,0.00518993940988333,-4.01163287213962e-05,5,13.9200819672131,29.9
4.8,11.6646174745954,29.161730770663,0.00487542821210508,-0.000314511197778255,5,13.9200819672131,29.9
4.83333333333333,11.6646174745954,29.161730770663,0.00433517291910045,-0.000540255293004628,5,13.9200819672131,29.9
4.86666666666667,11.6646174745954,29.161730770663,0.00362495664417479,-0.000710216274925658,5,13.9200819672131,29.9
4.9,11.6646174745954,29.161730770663,0.00280364154534691,-0.000821315098827876,5,13.9200819672131,29.9
4.93333333333333,11.6646174745954,29.161730770663,0.00192941740855324,-0.000874224136793671,5,13.9200819672131,29.9
4.96666666666667,11.6646174745954,29.161730770663,0.00105654103746949,-0.000872876371083747,5,13.9200819672131,29.9
5,11.6646174745954,29.161730770663,0.000232701415925901,-0.000823839621543593,5,13.9200819672131,29.9
5.03333333333333,11.6646174745954,29.161730770663,0.00050290968525817,0.000270208269332269,5,13.9200819672131,29.9
5.06666666666667,11.6646174745954,29.161730770663,0.00112079496569336,0.000617885280435192,5,13.9200819672131,29.9
5.1,11.6646174745954,29.161730770663,0.0016016376976919,0.00048084273199854,5,13.9200819672131,29.9
5.13333333333333,11.6646174745954,29.161730770663,0.00193613777051872,0.000334500072826815,5,13.9200819672131,29.9
5.16666666666667,11.6646174745954,29.161730770663,0.00212428987221219,0.000188152101693469,5,13.9200819672131,29.9
5.2,11.6646174745954,29.161730770663,0.00207560495950459,-4.8684912707592e-05,5,13.9200819672131,29.9
5.23333333333333,11.6646123159271,29.1621502868084,0.0219300952627716,0.019854490303267,4,13.9200819672131,29.9
5.26666666666667,11.6645967474081,29.1634163483792,0.0540686527191974,0.0321385574564258,4,13.9200819672131,29.9
5.3,11.6645652244812,29.1659794570888,0.0996464315551445,0.0455777788359471,4,13.9200819672131,29.9
5.33333333333333,11.6645140668301,29.1701376515749,0.149723263479246,0.0500768319241019,4,13.9200819672131,29.9
5.36666666666667,11.6644425194638,29.175949471085,0.198840601422522,0.0491173379432757,4,13.9200819672131,29.9
5.4,11.6643509514358,29.1833797362766,0.246827743814604,0.0479871423920818,4,13.9200819672131,29.9
5.43333333333333,11.6642397421914,29.1923895729396,0.293642638318892,0.0468148945042884,4,13.9200819672131,29.9
5.46666666666667,11.6641092233195,29.2029407566055,0.339337773829415,0.0456951355105227,4,13.9200819672131,29.9
5.5,11.6639596619385,29.2149968371825,0.383960200446981,0.0446224266175658,4,13.9200819672131,29.9
5.53333333333333,11.6637912642158,29.2285228100605,0.427548350778467,0.0435881503314864,4,13.9200819672131,29.9
5.56666666666667,11.6636041805864,29.243484848067,0.470133766123219,0.0425854153447514,4,13.9200819672131,29.9
5.6,11.6633985154874,29.2598498723502,0.511726909284742,0.0415931431615233,4,13.9200819672131,29.9
5.63333333333333,11.6631743439146,29.2775847734489,0.552323062233309,0.0405961529485666,4,13.9200819672131,29.9
5.66666666666667,11.662931721401,29.296656359586,0.591924884135425,0.039601821902116,4,13.9200819672131,29.9
5.7,11.6626706923622,29.3170316032876,0.630541314057059,0.0386164299216345,4,13.9200819672131,29.9
5.73333333333333,11.6623913007822,29.3386778230978,0.668185519137621,0.0376442050805617,4,13.9200819672131,29.9
5.76666666666667,11.6620936021885,29.3615628349447,0.704877454955148,0.0366919358175275,4,13.9200819672131,29.9
5.8,11.6617776688679,29.3856556664311,0.740673090107602,0.0357956351524542,4,13.9200819672131,29.9
5.83333333333333,11.6614435920371,29.41092746539,0.775634539275053,0.034961449167451,4,13.9200819672131,29.9
5.86666666666667,11.6610914968181,29.4373512507273,0.809811466549554,0.0341769272745008,4,13.9200819672131,29.9
5.9,11.6607215563392,29.464901557307,0.843244380463513,0.0334329139139585,4,13.9200819672131,29.9
5.93333333333333,11.660334001897,29.4935541716465,0.875967062459506,0.0327226819959936,4,13.9200819672131,29.9
5.96666666666667,11.6599291289671,29.5232859338007,0.908008452422119,0.0320413899626126,4,13.9200819672131,29.9
6,11.6595073010828,29.5540744146068,0.939375078153938,0.0313666257318193,4,13.9200819672131,29.9
6.03333333333333,11.6590689620183,29.5858966190877,0.970033711331016,0.0306586331770781,4,13.9200819672131,29.9
6.06666666666667,11.6586146334699,29.6187285602487,0.999962354949695,0.0299286436186784,4,13.9200819672131,29.9
6.1,11.6581448978522,29.6525457494189,1.02915199593419,0.0291896409844938,4,13.9200819672131,29.9
6.13333333333333,11.6576603800783,29.6873235222646,1.05760157782588,0.0284495818916888,4,13.9200819672131,29.9
6.16666666666667,11.6571617276441,29.7230373074979,1.08531791640751,0.0277163385816319,4,13.9200819672131,29.9
6.2,11.6566495896435,29.7596628543921,1.11231338915265,0.0269954727451407,4,13.9200819672131,29.9
6.23333333333333,11.6561245908872,29.7971767979137,1.13865091405583,0.0263375249031792,4,13.9200819672131,29.9
6.26666666666667,11.6555872581649,29.8355610326791,1.16459685469732,0.025945940641489,4,13.9200819672131,29.9
