Time,x_ego,y_ego,velocity,acceleration,action,x_ped,y_ped
0,11.8,15.9,5,0,1,15.5,29.9
0.0333333333333333,11.8,16.0666076888419,4.99642261439338,-0.0035773856066168,1,15.4502170138889,29.9
0.0666666666666667,11.8,16.2330926531145,4.99264756783477,-0.00377504655861216,1,15.4008680555556,29.9
0.1,11.800000030855,16.399449296924,4.9887313012216,-0.00391626661316913,1,15.351953125,29.9
0.133333333333333,11.8000002288143,16.5656736245138,4.9847142682894,-0.00401703293220113,1,15.3034722222222,29.9
0.166666666666667,11.8000007116335,16.7317627870125,4.98062546392588,-0.00408880436352188,1,15.2554253472222,29.9
0.2,11.80000154718,16.8977147575663,4.97648566976708,-0.00413979415880306,1,15.2078125,29.9
0.233333333333333,11.8000027620338,17.063528098492,4.97230978048592,-0.00417588928115187,1,15.1606336805556,29.9
0.266666666666667,11.8000043520586,17.2292017943845,4.96810847122775,-0.00420130925817119,1,15.1138888888889,29.9
0.3,11.8000062927328,17.3947351324968,4.96388939284092,-0.00421907838683655,1,15.067578125,29.9
0.333333333333333,11.8000085479137,17.560127617003,4.95965802864497,-0.00423136419594261,1,15.0217013888889,29.9
0.366666666666667,11.8000110765242,17.7253789075471,4.95541830856614,-0.00423972007883489,1,14.9762586805556,29.9
0.4,11.8000138372451,17.8904887751973,4.95117304931235,-0.00424525925379271,1,14.93125,29.9
0.433333333333333,11.8000167916236,18.0554570708765,4.94692426981373,-0.00424877949862079,1,14.8866753472222,29.9
0.466666666666667,11.800019906085,18.2202837027355,4.94267341723047,-0.00425085258325719,1,14.8425347222222,29.9
0.5,11.8000231532407,18.3849686199344,4.93842152885672,-0.00425188837374613,1,14.798828125,29.9
0.533333333333333,11.8000265127105,18.5495118010189,4.93416934809879,-0.00425218075793588,1,14.7555555555556,29.9
0.566666666666667,11.80002997151,18.7139132455881,4.92991740757213,-0.004251940526661,1,14.7127170138889,29.9
0.6,11.8000335239539,18.8781729683233,4.92566608867051,-0.0042513189016109,1,14.6703125,29.9
0.633333333333333,11.800037171011,19.0422909947075,4.92141566430392,-0.00425042436659329,1,14.6283420138889,29.9
0.666666666666667,11.8000409191069,19.2062673579579,4.91716632959027,-0.00424933471364586,1,14.5868055555556,29.9
0.7,11.8000447784738,19.3701020968267,4.9129182239139,-0.00424810567637568,1,14.545703125,29.9
0.733333333333333,11.8000487612454,19.5337952540257,4.90867144678212,-0.00424677713177601,1,14.5050347222222,29.9
0.766666666666667,11.8000528795577,19.6973468750963,4.904426069214,-0.00424537756812526,1,14.4648003472222,29.9
0.8,11.8000571135821,19.8607570076004,4.90018214188039,-0.00424392733360435,1,14.425,29.9
0.833333333333333,11.8000613368686,20.0240257005423,4.89593970097002,-0.00424244091036918,1,14.3856336805556,29.9
0.866666666666667,11.8000648316056,20.1871530039615,4.89169877234464,-0.00424092862538661,1,14.3467013888889,29.9
0.9,11.8000648515291,20.3501389686597,4.88745937708835,-0.00423939525628647,1,14.308203125,29.9
0.933333333333333,11.8000584684358,20.5129836459207,4.88322153553002,-0.00423784155832685,1,14.2701388888889,29.9
0.966666666666667,11.8000417935637,20.6756870872804,4.87898526783723,-0.00423626769279739,1,14.2325086805556,29.9
1,11.8000121095779,20.838249344261,4.87475058305465,-0.00423468478258027,1,14.1953125,29.9
1.03333333333333,11.7999682512192,21.0006704682499,4.8705174784102,-0.00423310464444526,1,14.1585503472222,29.9
1.06666666666667,11.7999102440526,21.1629505105277,4.86628594426144,-0.00423153414875976,1,14.1222222222222,29.9
1.1,11.799838933426,21.3250895223881,4.86205597006765,-0.00422997419378834,1,14.086328125,29.9
1.13333333333333,11.7997556629339,21.487029423788,4.85433972737625,-0.0077162426914068,1,14.0508680555556,29.9
1.16666666666667,11.7996620678681,21.6483662631161,4.82587303727772,-0.0284666900985266,3,14.0158420138889,29.9
1.2,11.7995599143788,21.8084371143535,4.77838142689459,-0.0474916103831342,3,13.98125,29.9
1.23333333333333,11.7994508979611,21.9668385928831,4.7257115466626,-0.0526698802319876,3,13.9470920138889,29.9
1.26666666666667,11.7993365209,22.1234846101548,4.67305452540968,-0.0526570212529176,3,13.9133680555556,29.9
1.3,11.7992181429081,22.2781449161717,4.60656995323987,-0.0664845721698075,3,13.9133680555556,29.9
1.33333333333333,11.7990970392483,22.4302144052074,4.51760711946314,-0.0889628337767352,3,13.9133680555556,29.9
1.36666666666667,11.7989742824818,22.5790884802176,4.41484719337908,-0.102759926084054,3,13.9133680555556,29.9
1.4,11.7988506533433,22.724393412179,4.30346121018635,-0.111385983192732,3,13.9133680555556,29.9
1.43333333333333,11.7987266591212,22.8659281890016,4.18864122097329,-0.114819989213065,3,13.9133680555556,29.9
1.46666666666667,11.7986026180697,23.0035209733463,4.06694575054127,-0.121695470432019,3,13.9133680555556,29.9
1.5,11.7984787453776,23.1369422538192,3.93835564146157,-0.128590109079693,3,13.9133680555556,29.9
1.53333333333333,11.7983551535482,23.2660203770798,3.80636109889311,-0.131994542568464,3,13.9133680555556,29.9
1.56666666666667,11.7982314207975,23.3906702354529,3.67266412912621,-0.133696969766901,3,13.9133680555556,29.9
1.6,11.7981050960122,23.5108064127088,3.53554376852856,-0.13712036059765,3,13.9133680555556,29.9
1.63333333333333,11.7979721621428,23.6262861328374,3.3932790578905,-0.142264710638059,3,13.9133680555556,29.9
1.66666666666667,11.7978278552127,23.7369092602324,3.24414928872226,-0.149129769168244,3,13.9133680555556,29.9
1.7,11.797667839414,23.8424757104978,3.08987834706833,-0.154270941653932,3,13.9133680555556,29.9
1.73333333333333,11.7974893580608,23.9428428565749,2.93219011720151,-0.157688229866817,3,13.9133680555556,29.9
1.76666666666667,11.797289546626,24.0378968178027,2.77108615862732,-0.161103958574184,3,13.9133680555556,29.9
1.8,11.7970680022901,24.1275528190792,2.60831173413547,-0.162774424491856,3,13.9133680555556,29.9
1.83333333333333,11.7968271693841,24.2117838867335,2.44558990965245,-0.162721824483016,3,13.9133680555556,29.9
1.86666666666667,11.7965717681897,24.290591771549,2.28292115062141,-0.162668759031046,3,13.9133680555556,29.9
1.9,11.7963080088895,24.3639793619671,2.12046909722172,-0.162452053399684,3,13.9133680555556,29.9
1.93333333333333,11.7960426705786,24.4320020678848,1.96131677620688,-0.159152321014841,3,13.9133680555556,29.9
1.96666666666667,11.7957824884832,24.4947048509704,1.80135563458126,-0.15996114162562,3,13.9133680555556,29.9
2,11.7955336032333,24.5521522869867,1.64600998162023,-0.155345652961031,3,13.9133680555556,29.9
2.03333333333333,11.7953011778097,24.6044702829547,1.493597122944,-0.152412858676231,3,13.9133680555556,29.9
2.06666666666667,11.7950893088489,24.651785651562,1.34585084198096,-0.147746280963041,3,13.9133680555556,29.9
2.1,11.7949010423981,24.6941963291801,1.19931087902027,-0.146539962960693,3,13.9133680555556,29.9
2.13333333333333,11.7947383832897,24.7317992623524,1.05738483236359,-0.141926046656676,3,13.9133680555556,29.9
2.16666666666667,11.7946023673776,24.7647203989907,0.918429796323267,-0.138955036040322,3,13.9133680555556,29.9
2.2,11.7944932070073,24.7931188817945,0.786027536977242,-0.132402259346025,3,13.9133680555556,29.9
2.23333333333333,11.7944105266643,24.8171540026213,0.656599725657447,-0.129427811319795,3,13.9133680555556,29.9
2.26666666666667,11.7943536532418,24.8369227898729,0.530050314125954,-0.126549411531493,3,13.9133680555556,29.9
2.3,11.7943216656528,24.8525217671605,0.406420955458007,-0.123629358667947,3,13.9133680555556,29.9
2.33333333333333,11.7943135384153,24.8640482039417,0.285691770806299,-0.120729184651707,3,13.9133680555556,29.9
2.36666666666667,11.7943282732946,24.8715970548454,0.167776091559504,-0.117915679246795,3,13.9133680555556,29.9
2.4,11.7943650038173,24.8752624764793,0.0528251278602719,-0.114950963699232,3,13.9133680555556,29.9
2.43333333333333,11.7944224292008,24.8754941064492,0.00900548039067697,-0.0438196474695949,3,13.9133680555556,29.9
2.46666666666667,11.7944949360239,24.8752200438126,0.00313695725389627,-0.00586852313678071,5,13.9133680555556,29.9
2.5,11.7944949360239,24.8752200438126,0.00360412722007844,0.000467169966182175,5,13.9133680555556,29.9
2.53333333333333,11.7944949360239,24.8752200438126,0.00446278687551934,0.000858659655440902,5,13.9133680555556,29.9
2.56666666666667,11.7944949360239,24.8752200438126,0.00560784675554961,0.00114505988003027,5,13.9133680555556,29.9
2.6,11.7944949360239,24.8752200438126,0.00689517400487828,0.00128732724932867,5,13.9133680555556,29.9
2.63333333333333,11.7944949360239,24.8752200438126,0.00816414157770576,0.00126896757282748,5,13.9133680555556,29.9
2.66666666666667,11.7944949360239,24.8752200438126,0.00925804151922596,0.0010938999415202,5,13.9133680555556,29.9
2.7,11.7944949360239,24.8752200438126,0.0100409571553681,0.000782915636142103,5,13.9133680555556,29.9
2.73333333333333,11.7944949360239,24.8752200438126,0.0104102121005774,0.000369254945209294,5,13.9133680555556,29.9
2.76666666666667,11.7944949360239,24.8752200438126,0.0103040166455817,-0.000106195454995701,5,13.9133680555556,29.9
2.8,11.7944949360239,24.8752200438126,0.00970438037478991,-0.000599636270791746,5,13.9133680555556,29.9
2.83333333333333,11.7944949360239,24.8752200438126,0.00863572951348579,-0.00106865086130412,5,13.9133680555556,29.9
2.86666666666667,11.7944949360239,24.8752200438126,0.00715994400041778,-0.00147578551306801,5,13.9133680555556,29.9
2.9,11.7944949360239,24.8752200438126,0.005368707256145,-0.00179123674427278,5,13.9133680555556,29.9
2.93333333333333,11.7944949360239,24.8752200438126,0.00337414371791458,-0.00199456353823042,5,13.9133680555556,29.9
2.96666666666667,11.7944949360239,24.8752200438126,0.00129871458669628,-0.0020754291312183,5,13.9133680555556,29.9
3,11.7944949360239,24.8752200438126,0.000734735180693588,-0.00056397940600269,5,13.9133680555556,29.9
3.03333333333333,11.7944949360239,24.8752200438126,0.00261201883953984,0.00187728365884625,5,13.9133680555556,29.9
3.06666666666667,11.7944949360239,24.8752200438126,0.00423514975468458,0.00162313091514474,5,13.9133680555556,29.9
3.1,11.7944949360239,24.8752200438126,0.00552798435690002,0.00129283460221544,5,13.9133680555556,29.9
3.13333333333333,11.7944949360239,24.8752200438126,0.00643976013222864,0.000911775775328618,5,13.9133680555556,29.9
3.16666666666667,11.7944949360239,24.8752200438126,0.00684790344419254,0.000408143311963897,5,13.9133680555556,29.9
3.2,11.7944938505327,24.8758280695741,0.0350610334362513,0.0282131299920587,4,13.9133680555556,29.9
3.23333333333333,11.7944902782478,24.8778286130897,0.0857345083302471,0.0506734748939958,4,13.9133680555556,29.9
3.26666666666667,11.7944836686495,24.881522343087,0.136042498102124,0.0503079897718767,4,13.9133680555556,29.9
3.3,11.7944740320849,24.8868820773309,0.185478466818164,0.0494359687160403,4,13.9133680555556,29.9
3.33333333333333,11.7944613568353,24.8938732448081,0.233824604401011,0.0483461375828466,4,13.9133680555556,29.9
3.36666666666667,11.7944455946907,24.9024566871882,0.280990808047016,0.0471662036460058,4,13.9133680555556,29.9
3.4,11.7944266457687,24.9125931620299,0.327021188023157,0.046030379976141,4,13.9133680555556,29.9
3.43333333333333,11.794404350382,24.9242453815012,0.371964048503652,0.0449428604804943,4,13.9133680555556,29.9
3.46666666666667,11.7943784880586,24.937377694952,0.415858092723519,0.0438940442198673,4,13.9133680555556,29.9
3.5,11.7943487797735,24.9519557730224,0.458735783187873,0.0428776904643543,4,13.9133680555556,29.9
3.53333333333333,11.7943148935724,24.9679462812807,0.500614986314497,0.0418792031266237,4,13.9133680555556,29.9
3.56666666666667,11.7942764544807,24.9853160510573,0.541490854633461,0.0408758683189635,4,13.9133680555556,29.9
3.6,11.7942330566734,25.0040317991116,0.581364922619829,0.0398740679863684,4,13.9133680555556,29.9
3.63333333333333,11.7941842775745,25.0240603694273,0.62024621363825,0.0388812910184207,4,13.9133680555556,29.9
3.66666666666667,11.7941296943038,25.0453689262368,0.658148675254818,0.0379024616165683,4,13.9133680555556,29.9
3.7,11.7940689016772,25.0679250965588,0.695090733531742,0.0369420582769241,4,13.9133680555556,29.9
3.73333333333333,11.7940015301093,25.0916974525777,0.731118981601892,0.03602824807015,4,13.9133680555556,29.9
3.76666666666667,11.7939272619448,25.1166565443814,0.766298459729127,0.0351794781272344,4,13.9133680555556,29.9
3.8,11.7938458479928,25.1427749047659,0.800682225913677,0.0343837661845507,4,13.9133680555556,29.9
3.83333333333333,11.7937571220886,25.1700266732341,0.834312955057597,0.0336307291439197,4,13.9133680555556,29.9
3.86666666666667,11.7936610119443,25.1983873084131,0.867225717549549,0.0329127624919517,4,13.9133680555556,29.9
3.9,11.7935575455761,25.227833372859,0.899450068588648,0.0322243510390996,4,13.9133680555556,29.9
3.93333333333333,11.7934468529457,25.2583423020927,0.931002691321215,0.0315526227325664,4,13.9133680555556,29.9
3.96666666666667,11.7933291641066,25.2898913693455,0.961856103861219,0.0308534125400044,4,13.9133680555556,29.9
4,11.7932048020656,25.3224568056543,0.991983283321996,0.0301271794607768,4,13.9133680555556,29.9
4.03333333333333,11.7930741683532,25.3560142124139,1.02137242996137,0.0293891466393691,4,13.9133680555556,29.9
4.06666666666667,11.7929377243743,25.3905389417391,1.05002044203151,0.02864801207014,4,13.9133680555556,29.9
4.1,11.7927959694977,25.4260063670826,1.07793238746254,0.0279119454310324,4,13.9133680555556,29.9
4.13333333333333,11.79264941676,25.4623921288264,1.10511955457741,0.0271871671148685,4,13.9133680555556,29.9
4.16666666666667,11.7924985675254,25.4996723070292,1.13159732984954,0.0264777752721317,4,13.9133680555556,29.9
4.2,11.7923438862788,25.5378236092686,1.15739140136898,0.0257940715194447,4,13.9133680555556,29.9
4.23333333333333,11.7921857760885,25.5768239566816,1.1825464936274,0.0251550922584216,4,13.9133680555556,29.9
4.26666666666667,11.7920245576988,25.6166527448716,1.20710387217358,0.0245573785461752,4,13.9133680555556,29.9
4.3,11.7918604539061,25.6572906323608,1.23109812276394,0.0239942505903645,4,13.9133680555556,29.9
4.33333333333333,11.7916935792198,25.6987193463091,1.25455873226691,0.0234606095029661,4,13.9133680555556,29.9
4.36666666666667,11.7915239355402,25.7409215327241,1.27751126653199,0.0229525342650809,4,13.9133680555556,29.9
4.4,11.7913514143056,25.7838806398531,1.29997824409446,0.0224669775624675,4,13.9133680555556,29.9
4.43333333333333,11.791175805139,25.8275808263936,1.32197978151136,0.0220015374169049,4,13.9133680555556,29.9
4.46666666666667,11.7909968105708,25.8720068883399,1.34353406907669,0.0215542875653256,4,13.9133680555556,29.9
4.5,11.7908140659646,25.9171441977726,1.36465724143538,0.0211231723586918,4,13.9133680555556,29.9
4.53333333333333,11.7906271636871,25.9629785253079,1.38535524122443,0.0206979997890446,4,13.9133680555556,29.9
4.56666666666667,11.7904356801124,26.0094956762507,1.40562723711549,0.0202719958910651,4,13.9133680555556,29.9
4.6,11.7902392021994,26.0566814895517,1.42547640047782,0.0198491633623323,4,13.9133680555556,29.9
4.63333333333333,11.7900373522934,26.1045219669214,1.4449091530085,0.0194327525306794,4,13.9133680555556,29.9
4.66666666666667,11.7898298097395,26.1530033624941,1.46393406846768,0.019024915459174,4,13.9133680555556,29.9
4.7,11.7896163276987,26.2021122412603,1.48256108576937,0.0186270173016947,4,13.9133680555556,29.9
4.73333333333333,11.7893967439598,26.2518355150813,1.50080094909032,0.0182398633209511,4,13.9133680555556,29.9
4.76666666666667,11.7891709848543,26.3021605341171,1.51867414356651,0.017873194476193,2,13.9133680555556,29.9
4.8,11.788939055851,26.3530773608328,1.53637681232226,0.0177026687557422,2,13.9133680555556,29.9
4.83333333333333,11.7887010006097,26.4045891987165,1.55450971699249,0.0181329046702357,4,13.9133680555556,29.9
4.86666666666667,11.7884568434103,26.4567254695302,1.57402504441597,0.0195153274234816,4,13.9133680555556,29.9
4.9,11.7882065339101,26.5095511902207,1.59607691433069,0.0220518699147196,4,13.9133680555556,29.9
4.93333333333333,11.7879499005764,26.5631711738774,1.62189100888821,0.0258140945575138,4,13.9133680555556,29.9
4.96666666666667,11.7876866095654,26.6177309533515,1.65264281684081,0.0307518079526015,4,13.9133680555556,29.9
5,11.7874161416298,26.6734114152724,1.68926891057855,0.0366260937377392,4,13.9133680555556,29.9
5.03333333333333,11.787137779454,26.7304206714144,1.73246660089207,0.0431976903135181,4,13.9133680555556,29.9
5.06666666666667,11.7868506002519,26.7889857467683,1.78267091721473,0.050204316322668,4,13.9133680555556,29.9
5.1,11.7865534763343,26.8493440453736,1.84007578474801,0.0574048675332754,4,13.9133680555556,29.9
5.13333333333333,11.786245081908,26.9117358118904,1.90466035369622,0.0645845689482101,4,13.9133680555556,29.9
5.16666666666667,11.7859239112788,26.976396616278,1.97615008685795,0.0714897331617255,4,13.9133680555556,29.9
5.2,11.7855883151411,27.0435484235177,2.05402556182378,0.0778754749658339,4,13.9133680555556,29.9
5.23333333333333,11.7852365405181,27.1133936456938,2.13764663362888,0.083621071805104,4,13.9133680555556,29.9
5.26666666666667,11.7848667730681,27.186112262137,2.22631638795765,0.0886697543287687,4,13.9133680555556,29.9
5.3,11.78447718381,27.2618607085061,2.31932412536233,0.0930077374046756,4,13.9133680555556,29.9
5.33333333333333,11.7840659773651,27.3407722460236,2.41600977406658,0.0966856487042538,4,13.9133680555556,29.9
5.36666666666667,11.7836314311229,27.4229601984087,2.51582937643409,0.0998196023675124,4,13.9133680555556,29.9
5.4,11.7831719384399,27.5085206994576,2.61828967258396,0.102460296149869,4,13.9133680555556,29.9
5.43333333333333,11.7826860885195,27.597534055113,2.72293204440714,0.104642371823181,4,13.9133680555556,29.9
5.46666666666667,11.7821727026629,27.690065759754,2.82932628561569,0.106394241208542,4,13.9133680555556,29.9
5.5,11.7816308090089,27.7861674241276,2.93706937093764,0.107743085321959,4,13.9133680555556,29.9
5.53333333333333,11.781059596988,27.8858776960925,3.0457872722019,0.108717901264255,4,13.9133680555556,29.9
5.56666666666667,11.7804583630939,27.9892231827272,3.15512624466889,0.109338972466988,4,13.9133680555556,29.9
5.6,11.779826462733,28.0962180994681,3.26469076370663,0.109564519037738,4,13.9133680555556,29.9
5.63333333333333,11.7791632709198,28.2068637734228,3.37412509295719,0.109434329250567,4,13.9133680555556,29.9
5.66666666666667,11.7784681423309,28.3211510981118,3.48315654913447,0.109031456177279,4,13.9133680555556,29.9
5.7,11.77774038418,28.4390630352759,3.59157974774613,0.108423198611654,4,13.9133680555556,29.9
5.73333333333333,11.7769792425997,28.5605767503957,3.69925219670111,0.107672448954989,4,13.9133680555556,29.9
5.76666666666667,11.7761838993516,28.6856655164057,3.80607804439691,0.1068258476958,4,13.9133680555556,29.9
5.8,11.775353478245,28.8142998657834,3.91198217079876,0.105904126401841,4,13.9133680555556,29.9
5.83333333333333,11.7744870638691,28.9464469555215,4.01682433542755,0.104842164628796,4,13.9133680555556,29.9
5.86666666666667,11.7735837266668,29.08206900502,4.12047625469165,0.103651919264095,4,13.9133680555556,29.9
5.9,11.7726425292509,29.2211253434685,4.22289029977874,0.102414045087095,4,13.9133680555556,29.9
5.93333333333333,11.7716625291504,29.3635746581392,4.32406852007089,0.101178220292148,4,13.9133680555556,29.9
5.96666666666667,11.7706427847605,29.5093760190114,4.42402824192594,0.0999597218550461,4,13.9133680555556,29.9
6,11.7695823620749,29.65848915437,4.52279115748989,0.0987629155639551,4,13.9133680555556,29.9
6.03333333333333,11.768480338911,29.8108746109586,4.62038552708759,0.0975943695976982,4,13.9133680555556,29.9
6.06666666666667,11.767335805665,29.9664939940267,4.71684603958012,0.0964605124925253,4,13.9133680555556,29.9
6.1,11.7661478635723,30.1253101580336,4.8122120966992,0.0953660571190813,4,13.9133680555556,29.9
6.13333333333333,11.7649156232152,30.2872869825094,4.90649003729954,0.0942779406003398,4,13.9133680555556,29.9
6.16666666666667,11.7636382236902,30.452385671645,4.99950608597532,0.0930160486757856,4,13.9133680555556,29.9
6.2,11.7623148399344,30.6205630770345,5.0912505490265,0.091744463051179,4,13.9133680555556,29.9
