Time,x_ego,y_ego,velocity,acceleration,action,x_ped,y_ped
0,11.8,8.9,7,0,1,15.5,29.9
0.0333333333333333,11.8,9.13327037939431,6.99615577953002,-0.00384422046998356,1,15.4502170138889,29.9
0.0666666666666667,11.8,9.36640659881126,6.99196947109348,-0.00418630843653833,1,15.4008680555556,29.9
0.1,11.8,9.59940075527911,6.98769498718995,-0.00427448390352669,1,15.351953125,29.9
0.133333333333333,11.8,9.83225378528415,6.9834976545359,-0.00419733265404787,1,15.3034722222222,29.9
0.166666666666667,11.8,10.0649678802301,6.97935585456763,-0.00414179996826913,1,15.2554253472222,29.9
0.2,11.8,10.2975446186632,6.97525409491249,-0.00410175965514537,1,15.2078125,29.9
0.233333333333333,11.8,10.5299851399444,6.97118127319767,-0.00407282171482137,1,15.1606336805556,29.9
0.266666666666667,11.8,10.7622902687052,6.96712943294736,-0.00405184025031069,1,15.1138888888889,29.9
0.3,11.8,10.9944606040335,6.96309287213007,-0.00403656081728965,1,15.067578125,29.9
0.333333333333333,11.8,11.2264965833863,6.95906750439986,-0.00402536773020401,1,15.0217013888889,29.9
0.366666666666667,11.8,11.4583985283897,6.95505040137947,-0.00401710302039238,1,14.9762586805556,29.9
0.4,11.8,11.6901666776599,6.95103946463339,-0.00401093674607722,1,14.93125,29.9
0.433333333333333,11.8,11.9218012103233,6.94703319054231,-0.00400627409108711,1,14.8866753472222,29.9
0.466666666666667,11.8,12.1533022628712,6.94303050173604,-0.00400268880626342,1,14.8425347222222,29.9
0.5,11.8,12.3846699412377,6.93903062623031,-0.00399987550573222,1,14.798828125,29.9
0.533333333333333,11.8,12.6159043294559,6.93503301077307,-0.00399761545723631,1,14.7555555555556,29.9
0.566666666666667,11.8,12.8470054958598,6.93103725873891,-0.00399575203416092,1,14.7127170138889,29.9
0.6,11.8,13.0779734975296,6.92704308564579,-0.003994173093127,1,14.6703125,29.9
0.633333333333333,11.8,13.3088083834769,6.92305028732138,-0.00399279832440236,1,14.6283420138889,29.9
0.666666666666667,11.8,13.539510196927,6.91905871714157,-0.00399157017981544,1,14.5868055555556,29.9
0.7,11.8,13.7700789769551,6.91506826976362,-0.00399044737794529,1,14.545703125,29.9
0.733333333333333,11.8,14.0005147596581,6.91107886949752,-0.00398940026610006,1,14.5050347222222,29.9
0.766666666666667,11.8,14.2308175789948,6.90709046198042,-0.00398840751710594,1,14.4648003472222,29.9
0.8,11.8,14.460987467388,6.90310300819923,-0.00398745378118903,1,14.425,29.9
0.833333333333333,11.8000090439674,14.690966324937,6.89562871884978,-0.00747428934944505,1,14.3856336805556,29.9
0.866666666666667,11.8000656859688,14.920436649207,6.87259185370785,-0.0230368651419344,3,14.3467013888889,29.9
0.9,11.8002006505443,15.149023940391,6.84264897726742,-0.0299428764404333,3,14.308203125,29.9
0.933333333333333,11.8004297845054,15.3763824416333,6.79886933797353,-0.0437796392938896,3,14.2701388888889,29.9
0.966666666666667,11.8007582737877,15.6020222090705,6.73953277731237,-0.0593365606611567,3,14.2325086805556,29.9
1,11.8011841632249,15.8249054868013,6.63349118488016,-0.106041592432211,3,14.1953125,29.9
1.03333333333333,11.8017011756817,16.0438504542176,6.50324755300988,-0.130243631870274,3,14.1585503472222,29.9
1.06666666666667,11.8023008291199,16.2581368883381,6.35399463083251,-0.149252922177376,3,14.1222222222222,29.9
1.1,11.80297361625,16.4673331882491,6.19785661931762,-0.156138011514885,3,14.086328125,29.9
1.13333333333333,11.8037096303395,16.6712382028222,6.03653620838111,-0.161320410936516,3,14.0508680555556,29.9
1.16666666666667,11.8044988382439,16.8697660268863,5.87524495559693,-0.161291252784181,3,14.0158420138889,29.9
1.2,11.8053313111064,17.0629176347242,5.71398331723793,-0.161261638358994,3,13.98125,29.9
1.23333333333333,11.8061973680757,17.2506940267354,5.55275119886494,-0.161232118372989,3,13.9470920138889,29.9
1.26666666666667,11.8070879111842,17.4330962180436,5.39154816269624,-0.1612030361687,3,13.9133680555556,29.9
1.3,11.8079947913119,17.6101252293999,5.23037366519639,-0.161174497499851,3,13.9133680555556,29.9
1.33333333333333,11.8089111293805,17.7817820800327,5.06922727500111,-0.161146390195282,3,13.9133680555556,29.9
1.36666666666667,11.8098315157378,17.9480677822869,4.90810882206875,-0.161118452932363,3,13.9133680555556,29.9
1.4,11.8107520354313,18.1089833379485,4.74701844714286,-0.161090374925887,3,13.9133680555556,29.9
1.43333333333333,11.8116701062926,18.2645297361256,4.58595654771571,-0.161061899427157,3,13.9133680555556,29.9
1.46666666666667,11.81258426833,18.4147360136889,4.42657993240227,-0.159376615313435,3,13.9133680555556,29.9
1.5,11.8134937722768,18.559656571489,4.26881931338378,-0.157760619018491,3,13.9133680555556,29.9
1.53333333333333,11.8143981848898,18.699375129478,4.11446544545654,-0.154353867927238,3,13.9133680555556,29.9
1.56666666666667,11.8152969053037,18.8339767092117,3.96180732964953,-0.15265811580701,3,13.9133680555556,29.9
1.6,11.816188778908,18.9635185535973,3.81088988742233,-0.150917442227202,3,13.9133680555556,29.9
1.63333333333333,11.8170723758132,19.0881163286212,3.66517331454515,-0.145716572877182,3,13.9133680555556,29.9
1.66666666666667,11.8179461913653,19.2079722596303,3.52639011102229,-0.138783203522855,3,13.9133680555556,29.9
1.7,11.818808715436,19.3233466387598,3.3962905900336,-0.130099520988696,3,13.9133680555556,29.9
1.73333333333333,11.8196582498457,19.4344712397695,3.27141220548011,-0.124878384553488,3,13.9133680555556,29.9
1.76666666666667,11.820492840426,19.5414914752602,3.15003486888961,-0.1213773365905,3,13.9133680555556,29.9
1.8,11.8213104251146,19.6444663517122,3.02869370043369,-0.121341168455916,3,13.9133680555556,29.9
1.83333333333333,11.8221090565568,19.743397148635,2.90738968057607,-0.121304019857619,3,13.9133680555556,29.9
1.86666666666667,11.8228868641974,19.838227405506,2.78265755133643,-0.124732129239645,3,13.9133680555556,29.9
1.9,11.8236419379386,19.9288429197201,2.6544984071143,-0.128159144222128,3,13.9133680555556,29.9
1.93333333333333,11.8243726728518,20.0151585825915,2.52465743120068,-0.129840975913618,3,13.9133680555556,29.9
1.96666666666667,11.8250777972671,20.0971470784766,2.39485792805627,-0.129799503144417,3,13.9133680555556,29.9
2,11.8257564706227,20.174867578874,2.26856688472179,-0.126291043334477,3,13.9133680555556,29.9
2.03333333333333,11.8264079314211,20.2484090892806,2.14419004505592,-0.124376839665872,3,13.9133680555556,29.9
2.06666666666667,11.8270314836029,20.3178799534675,2.02455329752058,-0.119636747535331,3,13.9133680555556,29.9
2.1,11.8276270830271,20.3834850907028,1.91231546665705,-0.112237830863537,3,13.9133680555556,29.9
2.13333333333333,11.8281947383709,20.445417940443,1.80422053500685,-0.108094931650193,3,13.9133680555556,29.9
2.16666666666667,11.8287346884801,20.5038744248502,1.70370840691755,-0.100512128089298,3,13.9133680555556,29.9
2.2,11.8292478048456,20.5591049019237,1.61063456387012,-0.0930738430474305,3,13.9133680555556,29.9
2.23333333333333,11.8297352268876,20.6113554191514,1.5248886452688,-0.0857459186013203,3,13.9133680555556,29.9
2.26666666666667,11.8301985632996,20.6608971983534,1.44807723234521,-0.0768114129235968,3,13.9133680555556,29.9
2.3,11.8306396583354,20.7079964508552,1.37830657051752,-0.0697706618276894,3,13.9133680555556,29.9
2.33333333333333,11.831060965237,20.7529721396915,1.32063114655231,-0.0576754239652071,3,13.9133680555556,29.9
2.36666666666667,11.8314657177547,20.7962246809202,1.27487701758135,-0.0457541289709644,3,13.9133680555556,29.9
2.4,11.8318572816398,20.8381480830092,1.24084417265798,-0.0340328449233631,3,13.9133680555556,29.9
2.43333333333333,11.8322389137831,20.8791009502377,1.21661096024373,-0.0242332124142492,3,13.9133680555556,29.9
2.46666666666667,11.8326130961152,20.9193201665613,1.19679962365588,-0.0198113365878565,3,13.9133680555556,29.9
2.5,11.8329812723567,20.9588925116251,1.17778449557199,-0.0190151280838893,3,13.9133680555556,29.9
2.53333333333333,11.8333448542861,20.9978997181449,1.16288537417894,-0.0148991213930436,2,13.9133680555556,29.9
2.56666666666667,11.8337066956338,21.036621638953,1.16066068344637,-0.00222469073257803,2,13.9133680555556,29.9
2.6,11.8340708939932,21.0755070807659,1.17268304710113,0.0120223636547649,2,13.9133680555556,29.9
2.63333333333333,11.8344413072647,21.114970251285,1.19530498072845,0.0226219336273155,4,13.9133680555556,29.9
2.66666666666667,11.8348200486409,21.1551888716737,1.21799149446203,0.0226865137335861,4,13.9133680555556,29.9
2.7,11.8352079031768,21.1961623925455,1.24058402804053,0.022592533578498,4,13.9133680555556,29.9
2.73333333333333,11.8356056100148,21.2378860632769,1.26298677116913,0.0224027431285958,4,13.9133680555556,29.9
2.76666666666667,11.8360138469693,21.2803524564989,1.28513384978219,0.0221470786130669,4,13.9133680555556,29.9
2.8,11.8364332103154,21.3235523128773,1.30698117340352,0.0218473236213239,4,13.9133680555556,29.9
2.83333333333333,11.8368641937297,21.3674751540438,1.32850039149751,0.0215192180939925,4,13.9133680555556,29.9
2.86666666666667,11.837307167886,21.4121097258675,1.34967440558444,0.0211740140869348,4,13.9133680555556,29.9
2.9,11.8377623625253,21.4574443095009,1.37049265773703,0.0208182521525833,4,13.9133680555556,29.9
2.93333333333333,11.8382298516378,21.5034667370965,1.39093857042176,0.0204459126847363,4,13.9133680555556,29.9
2.96666666666667,11.8387095451523,21.5501642809404,1.41099836352766,0.0200597931058937,4,13.9133680555556,29.9
3,11.8392011928649,21.5975238908264,1.43066591914025,0.0196675556125967,4,13.9133680555556,29.9
3.03333333333333,11.8397043992071,21.6455324190151,1.44994048303538,0.0192745638951233,4,13.9133680555556,29.9
3.06666666666667,11.8402186488733,21.6941767773755,1.4688250542448,0.018884571209421,4,13.9133680555556,29.9
3.1,11.8407433426475,21.7434440453747,1.48732526305088,0.0185002088060775,4,13.9133680555556,29.9
3.13333333333333,11.8412778413424,21.7933215424539,1.50544858420927,0.0181233211583907,4,13.9133680555556,29.9
3.16666666666667,11.8418215144359,21.8437968747254,1.52320377091062,0.0177551867013488,2,13.9133680555556,29.9
3.2,11.8423737889918,21.8948579632783,1.5406004291772,0.0173966582665848,2,13.9133680555556,29.9
3.23333333333333,11.8429341939745,21.9464930594272,1.55764868149103,0.0170482523138253,2,13.9133680555556,29.9
3.26666666666667,11.8435023952422,21.9986907508033,1.57435889143645,0.0167102099454244,2,13.9133680555556,29.9
3.3,11.8440782173315,22.0514399580036,1.59074068726965,0.0163817958331958,2,13.9133680555556,29.9
3.33333333333333,11.8446616482319,22.1047297654908,1.60679340650483,0.0160527192351871,2,13.9133680555556,29.9
3.36666666666667,11.845252826809,22.1585491216313,1.62251316143762,0.0157197549327834,2,13.9133680555556,29.9
3.4,11.8458520186884,22.2128869133218,1.63790057446811,0.0153874130304945,2,13.9133680555556,29.9
3.43333333333333,11.8464595811686,22.2677321004876,1.65295951181341,0.0150589373453016,2,13.9133680555556,29.9
3.46666666666667,11.8470759209244,22.3230738088762,1.6676959955703,0.0147364837568897,2,13.9133680555556,29.9
3.5,11.8477009211355,22.3788432913534,1.6786330276582,0.0109370320878965,2,13.9133680555556,29.9
3.53333333333333,11.8483320398574,22.4347131242801,1.67373301055482,-0.00490001710337862,2,13.9133680555556,29.9
3.56666666666667,11.8489641957509,22.4900992807869,1.64964068330949,-0.0240923272453268,3,13.9133680555556,29.9
3.6,11.8495920326658,22.5444227047455,1.61000559687821,-0.0396350864312875,3,13.9133680555556,29.9
3.63333333333333,11.850212021093,22.5973419132237,1.56542361200357,-0.0445819848746352,3,13.9133680555556,29.9
3.66666666666667,11.8508214118872,22.648637557144,1.51261752262275,-0.0528060893808204,3,13.9133680555556,29.9
3.7,11.8514152879179,22.6978939979891,1.44309991666611,-0.0695176059566414,3,13.9133680555556,29.9
3.73333333333333,11.8519862964727,22.7444715786283,1.35192580736691,-0.0911741092991947,3,13.9133680555556,29.9
3.76666666666667,11.8525268690671,22.7877391313911,1.24454048036545,-0.10738532700146,3,13.9133680555556,29.9
3.8,11.8530298239323,22.8271319769472,1.11948991840232,-0.125050561963133,3,13.9133680555556,29.9
3.83333333333333,11.8534884621878,22.8621530001644,0.982308345145297,-0.137181573257025,3,13.9133680555556,29.9
3.86666666666667,11.8538972172014,22.892434442313,0.835207374636045,-0.147100970509252,3,13.9133680555556,29.9
3.9,11.8542522286493,22.917795150877,0.687122404574699,-0.148084970061345,3,13.9133680555556,29.9
3.93333333333333,11.8545515777686,22.9382331108345,0.539933706231364,-0.147188698343335,3,13.9133680555556,29.9
3.96666666666667,11.8547942778949,22.9538101260826,0.395606432979688,-0.144327273251676,3,13.9133680555556,29.9
4,11.8549803163925,22.9646521734875,0.256025327463945,-0.139581105515743,3,13.9133680555556,29.9
4.03333333333333,11.8551094624734,22.9708297624257,0.116252656195765,-0.13977267126818,3,13.9133680555556,29.9
4.06666666666667,11.8551793126442,22.9721659505333,0.0528680156783105,-0.0633846405174545,3,13.9133680555556,29.9
4.1,11.8552076711744,22.9704505857161,0.0106710287412413,-0.0421969869370692,3,13.9133680555556,29.9
4.13333333333333,11.8552076711744,22.9704505857161,0.00824905232416159,-0.00242197641707971,5,13.9133680555556,29.9
4.16666666666667,11.8552076711744,22.9704505857161,0.00489758344451697,-0.00335146887964462,5,13.9133680555556,29.9
4.2,11.8552076711744,22.9704505857161,0.000830854350865989,-0.00406672909365098,5,13.9133680555556,29.9
4.23333333333333,11.8552076711744,22.9704505857161,0.00365570085830685,0.00282484650744087,5,13.9133680555556,29.9
4.26666666666667,11.8552076711744,22.9704505857161,0.00822416985732358,0.00456846899901672,5,13.9133680555556,29.9
4.3,11.8552076711744,22.9704505857161,0.0125314717389628,0.00430730188163925,5,13.9133680555556,29.9
4.33333333333333,11.8552076711744,22.9704505857161,0.0162623254562332,0.00373085371727034,5,13.9133680555556,29.9
4.36666666666667,11.8552076711744,22.9704505857161,0.0191557536244163,0.00289342816818309,5,13.9133680555556,29.9
4.4,11.8552076711744,22.9704505857161,0.0210238350326577,0.00186808140824142,5,13.9133680555556,29.9
4.43333333333333,11.8552076711744,22.9704505857161,0.0217622218469803,0.000738386814322589,5,13.9133680555556,29.9
4.46666666666667,11.8552076711744,22.9704505857161,0.02135265227556,-0.000409569571420243,5,13.9133680555556,29.9
4.5,11.8552076711744,22.9704505857161,0.0198582777549892,-0.00149437452057083,5,13.9133680555556,29.9
4.53333333333333,11.8552076711744,22.9704505857161,0.0174130621508619,-0.00244521560412734,5,13.9133680555556,29.9
4.56666666666667,11.8552076711744,22.9704505857161,0.0142067901635188,-0.00320627198734308,5,13.9133680555556,29.9
4.6,11.8552076711744,22.9704505857161,0.0104673469696345,-0.00373944319388429,5,13.9133680555556,29.9
4.63333333333333,11.8552076711744,22.9704505857161,0.00644191544153292,-0.00402543152810157,5,13.9133680555556,29.9
4.66666666666667,11.8552076711744,22.9704505857161,0.00237860318291054,-0.00406331225862238,5,13.9133680555556,29.9
4.7,11.8552076711744,22.9704505857161,0.00149021377402983,-0.000888389408880708,5,13.9133680555556,29.9
4.73333333333333,11.8552076711744,22.9704505857161,0.0049618309943623,0.00347161722033246,5,13.9133680555556,29.9
4.76666666666667,11.8552076711744,22.9704505857161,0.0078737594675219,0.0029119284731596,5,13.9133680555556,29.9
4.8,11.8552076711744,22.9704505857161,0.0101105182140785,0.0022367587465566,5,13.9133680555556,29.9
4.83333333333333,11.8552076711744,22.9704505857161,0.0116066271752048,0.00149610896112628,5,13.9133680555556,29.9
4.86666666666667,11.8552076711744,22.9704505857161,0.0123460212025222,0.000739394027317394,5,13.9133680555556,29.9
4.9,11.8552076711744,22.9704505857161,0.0123583245621916,1.23033596693932e-05,5,13.9133680555556,29.9
4.93333333333333,11.8552076711744,22.9704505857161,0.011712585189087,-0.000645739373104567,5,13.9133680555556,29.9
4.96666666666667,11.8552076711744,22.9704505857161,0.0105091661085222,-0.00120341908056476,5,13.9133680555556,29.9
5,11.8552076711744,22.9704505857161,0.0088705297328951,-0.00163863637562714,5,13.9133680555556,29.9
5.03333333333333,11.8552076711744,22.9704505857161,0.00693163470266374,-0.00193889503023136,5,13.9133680555556,29.9
5.06666666666667,11.8552076711744,22.9704505857161,0.00483060301874624,-0.0021010316839175,5,13.9133680555556,29.9
5.1,11.8552076711744,22.9704505857161,0.00270021774142928,-0.00213038527731696,5,13.9133680555556,29.9
5.13333333333333,11.8552076711744,22.9704505857161,0.000660689768107185,-0.00203952797332209,5,13.9133680555556,29.9
5.16666666666667,11.8552076711744,22.9704505857161,0.00118600255266831,0.000525312784561129,5,13.9133680555556,29.9
5.2,11.8552076711744,22.9704505857161,0.00276003437761058,0.00157403182494227,5,13.9133680555556,29.9
5.23333333333333,11.8552076711744,22.9704505857161,0.00400587960599646,0.00124584522838588,5,13.9133680555556,29.9
5.26666666666667,11.8552076711744,22.9704505857161,0.00489276001574194,0.000886880409745472,5,13.9133680555556,29.9
5.3,11.8552076711744,22.9704505857161,0.00541357387256419,0.000520813856822251,5,13.9133680555556,29.9
5.33333333333333,11.8552076711744,22.9704505857161,0.00558255209755325,0.000168978224989059,5,13.9133680555556,29.9
5.36666666666667,11.8552076711744,22.9704505857161,0.00543193764438911,-0.000150614453164132,5,13.9133680555556,29.9
5.4,11.8552076711744,22.9704505857161,0.00500800666699105,-0.000423930977398066,5,13.9133680555556,29.9
5.43333333333333,11.8552076711744,22.9704505857161,0.00436675019250886,-0.00064125647448219,5,13.9133680555556,29.9
5.46666666666667,11.8552076711744,22.9704505857161,0.00356951539133107,-0.000797234801177786,5,13.9133680555556,29.9
5.5,11.8552076711744,22.9704505857161,0.00267887002689118,-0.000890645364439896,5,13.9133680555556,29.9
5.53333333333333,11.8552076711744,22.9704505857161,0.00175490661450782,-0.000923963412383355,5,13.9133680555556,29.9
5.56666666666667,11.8552076711744,22.9704505857161,0.000852148688982916,-0.000902757925524905,5,13.9133680555556,29.9
5.6,11.8552076711744,22.9704505857161,1.71646711522145e-05,-0.000834984017830702,5,13.9133680555556,29.9
5.63333333333333,11.8552076711744,22.9704505857161,0.000713060988850101,0.000695896317697887,5,13.9133680555556,29.9
5.66666666666667,11.8552076711744,22.9704505857161,0.00131200115503294,0.000598940166182844,5,13.9133680555556,29.9
5.7,11.8552076711744,22.9704505857161,0.00176375011742716,0.000451748962394219,5,13.9133680555556,29.9
5.73333333333333,11.8552076711744,22.9704505857161,0.00206256057744471,0.000298810460017548,5,13.9133680555556,29.9
5.76666666666667,11.8552076711744,22.9704505857161,0.00221186174736764,0.000149301169922933,5,13.9133680555556,29.9
5.8,11.8552076711744,22.9704505857161,0.00222288299051723,1.10212431495903e-05,5,13.9133680555556,29.9
5.83333333333333,11.8552076711744,22.9704505857161,0.0021130140463774,-0.000109868944139834,5,13.9133680555556,29.9
5.86666666666667,11.8552076711744,22.9704505857161,0.0019040308450063,-0.0002089832013711,5,13.9133680555556,29.9
5.9,11.8552076711744,22.9704505857161,0.00162030652620095,-0.000283724318805354,5,13.9133680555556,29.9
5.93333333333333,11.8552076711744,22.9704505857161,0.00128711211157303,-0.000333194414627919,5,13.9133680555556,29.9
5.96666666666667,11.8552076711744,22.9704505857161,0.00092909203131911,-0.000358020080253917,5,13.9133680555556,29.9
6,11.8552076711744,22.9704505857161,0.000568978088677867,-0.000360113942641243,5,13.9133680555556,29.9
6.03333333333333,11.8552076711744,22.9704505857161,0.000226583063329127,-0.000342395025348741,5,13.9133680555556,29.9
6.06666666666667,11.8552076711744,22.9704505857161,8.1906560840102e-05,-0.000144676502489025,5,13.9133680555556,29.9
6.1,11.8552076711744,22.9704505857161,0.000344339120213867,0.000262432559373765,5,13.9133680555556,29.9
6.13333333333333,11.8552076711744,22.9704505857161,0.000651337452463815,0.000306998332249948,5,13.9133680555556,29.9
6.16666666666667,11.8552164908384,22.9713181754516,0.0517304755647163,0.0510791381122525,4,13.9133680555556,29.9
6.2,11.8552426695743,22.9738931707923,0.10269601745646,0.0509655418917434,4,13.9133680555556,29.9
