Time,x_ego,y_ego,velocity,acceleration,action,x_ped,y_ped
0,11.8,8.9,5,0,1,15.5,29.9
0.0333333333333333,11.8,9.06660768884189,4.99642261439338,-0.0035773856066168,1,15.4502170138889,29.9
0.0666666666666667,11.8,9.23309265311448,4.99264756783477,-0.00377504655861216,1,15.4008680555556,29.9
0.1,11.8000018513001,9.39944929692283,4.98873130370189,-0.00391626413288559,1,15.351953125,29.9
0.133333333333333,11.8000137288509,9.56567362446149,4.98471429823244,-0.00401700546944905,1,15.3034722222222,29.9
0.166666666666667,11.8000426979855,9.73176278651834,4.98062557517825,-0.00408872305418484,1,15.2554253472222,29.9
0.2,11.8000928307554,9.89771475528194,4.97648592173749,-0.00413965344075962,1,15.2078125,29.9
0.233333333333333,11.8001657219495,10.0635280913934,4.97231021266386,-0.00417570907363274,1,15.1606336805556,29.9
0.266666666666667,11.8002611233992,10.2292017772616,4.96810909104442,-0.00420112161943553,1,15.1138888888889,29.9
0.3,11.8003775638084,10.3947350978407,4.96389017800205,-0.00421891304237132,1,15.067578125,29.9
0.333333333333333,11.8005128746242,10.5601275553014,4.9596589378172,-0.0042312401848541,1,15.0217013888889,29.9
0.366666666666667,11.800664591223,10.7253788078646,4.95541929359114,-0.00423964422605572,1,14.9762586805556,29.9
0.4,11.8008302344574,10.890488625864,4.9511740647137,-0.00424522887744505,1,14.93125,29.9
0.433333333333333,11.801007497155,11.0554568601254,4.94692527831363,-0.00424878640006909,1,14.8866753472222,29.9
0.466666666666667,11.8011943648347,11.2202834191782,4.94267439185889,-0.00425088645473615,1,14.8425347222222,29.9
0.5,11.8013891941838,11.3849682528266,4.93842245286464,-0.00425193899425125,1,14.798828125,29.9
0.533333333333333,11.8015907623845,11.5495113403106,4.93417021374629,-0.00425223911835193,1,14.7555555555556,29.9
0.566666666666667,11.8017982903703,11.7139126817917,4.92991821446727,-0.00425199927901687,1,14.7127170138889,29.9
0.6,11.8020114370231,11.8781722922483,4.92566684199853,-0.00425137246874296,1,14.6703125,29.9
0.633333333333333,11.8022302604615,12.0422901971216,4.92141637310118,-0.0042504688973537,1,14.6283420138889,29.9
0.666666666666667,11.8024551462232,12.2062664292332,4.9171670051445,-0.00424936795667374,1,14.5868055555556,29.9
0.7,11.802686708241,12.3701010266234,4.91291887834112,-0.00424812680338338,1,14.545703125,29.9
0.733333333333333,11.8029256745246,12.5337940310544,4.90867209180385,-0.00424678653727018,1,14.5050347222222,29.9
0.766666666666667,11.8031727732399,12.6973454869852,4.90442671513951,-0.00424537666433711,1,14.4648003472222,29.9
0.8,11.8034286351812,12.8607554408747,4.90018279682775,-0.00424391831175619,1,14.425,29.9
0.833333333333333,11.8036937253796,13.024023940702,4.89594037031033,-0.00424242651742279,1,14.3856336805556,29.9
0.866666666666667,11.8039683107071,13.187151035626,4.89169945846655,-0.00424091184378206,1,14.3467013888889,29.9
0.9,11.8042524633731,13.3501367757247,4.88746007693581,-0.00423938153074488,1,14.308203125,29.9
0.933333333333333,11.8045460938475,13.5129812117809,4.88322223656981,-0.00423784036599173,1,14.2701388888889,29.9
0.966666666666667,11.8048490023644,13.6756843950956,4.87898594517638,-0.00423629139343262,1,14.2325086805556,29.9
1,11.8051609364912,13.8382463773231,4.87475120866454,-0.00423473651183848,1,14.1953125,29.9
1.03333333333333,11.8054816433255,14.0006672103301,4.87051803170298,-0.00423317696156555,1,14.1585503472222,29.9
1.06666666666667,11.8058109080746,14.162946946085,4.86628641802609,-0.00423161367688341,1,14.1222222222222,29.9
1.1,11.806148575089,14.3250856365778,4.86205637053214,-0.00423004749395339,1,14.086328125,29.9
1.13333333333333,11.8064945517311,14.4870833337744,4.85782789130031,-0.00422847923182612,1,14.0508680555556,29.9
1.16666666666667,11.806848798851,14.6489400895967,4.85360098161421,-0.00422690968610784,1,14.0158420138889,29.9
1.2,11.8072113135253,14.8106559559256,4.84937564203352,-0.00422533958068527,1,13.98125,29.9
1.23333333333333,11.8075821099775,14.9722309846134,4.84515187251872,-0.00422376951480263,1,13.9470920138889,29.9
1.26666666666667,11.8079612034959,15.1336652274993,4.84092967259081,-0.0042221999279084,1,13.9133680555556,29.9
1.3,11.8083486002241,15.2949587364205,4.83670904149949,-0.00422063109131976,1,13.9133680555556,29.9
1.33333333333333,11.8087442935453,15.4561115632152,4.83248997837326,-0.00421906312623399,1,13.9133680555556,29.9
1.36666666666667,11.8091482659594,15.6171237597177,4.82827248233152,-0.00421749604173449,1,13.9133680555556,29.9
1.4,11.8095604942279,15.7779953777485,4.82405655254854,-0.00421592978298513,1,13.9133680555556,29.9
1.43333333333333,11.8099809552548,15.9387264691019,4.81984218827004,-0.00421436427849375,1,13.9133680555556,29.9
1.46666666666667,11.8104096305911,16.0993170855369,4.81562938879335,-0.00421279947669184,1,13.9133680555556,29.9
1.5,11.8108465083304,16.2597672787727,4.81141815342753,-0.00421123536582524,1,13.9133680555556,29.9
1.53333333333333,11.8112915821886,16.4200771004903,4.80720848145141,-0.00420967197611422,1,13.9133680555556,29.9
1.56666666666667,11.8117448484369,16.5802466023387,4.80300037208359,-0.0042081093678199,1,13.9133680555556,29.9
1.6,11.8122063018834,16.740275835944,4.798793824472,-0.00420654761159422,1,13.9133680555556,29.9
1.63333333333333,11.8126759322003,16.9001648529185,4.79458883770386,-0.00420498676814152,1,13.9133680555556,29.9
1.66666666666667,11.8131537216282,17.0599137048667,4.79038541083089,-0.00420342687296316,1,13.9133680555556,29.9
1.7,11.813639644576,17.2195224433875,4.78618354290134,-0.0042018679295488,1,13.9133680555556,29.9
1.73333333333333,11.8141336690673,17.3789911200713,4.78198323298967,-0.00420030991167764,1,13.9133680555556,29.9
1.76666666666667,11.8146357595054,17.5383197864937,4.77778448021659,-0.00419875277307646,1,13.9133680555556,29.9
1.8,11.8151458799573,17.6975084942073,4.7735872837556,-0.00419719646098748,1,13.9133680555556,29.9
1.83333333333333,11.815663997127,17.8565572947335,4.76939164282592,-0.00419564092968017,1,13.9133680555556,29.9
1.86666666666667,11.8161900823704,18.0154662395568,4.76519755667542,-0.00419408615050099,1,13.9133680555556,29.9
1.9,11.8167241124236,18.1742353801218,4.76100502455904,-0.00419253211638093,1,13.9133680555556,29.9
1.93333333333333,11.8172660688658,18.3328647678338,4.75681404571852,-0.00419097884052366,1,13.9133680555556,29.9
1.96666666666667,11.8178159366345,18.4913544540628,4.75262461936806,-0.00418942635045205,1,13.9133680555556,29.9
2,11.8183737020817,18.6497044901479,4.7484367446885,-0.00418787467956339,1,13.9133680555556,29.9
2.03333333333333,11.8189393510898,18.8079149274035,4.74425042082989,-0.00418632385861439,1,13.9133680555556,29.9
2.06666666666667,11.8195128676646,18.9659858171232,4.74006564692073,-0.00418477390915939,1,13.9133680555556,29.9
2.1,11.8200938714768,19.1238016747445,4.72895037202183,-0.0111152748989003,1,13.9133680555556,29.9
2.13333333333333,11.8206812306237,19.281016328097,4.70399540197668,-0.0249549700451484,3,13.9133680555556,29.9
2.16666666666667,11.8212731945924,19.4371107280097,4.66173724378238,-0.0422581581942989,3,13.9133680555556,29.9
2.2,11.8218678156356,19.5915372304182,4.60392359217376,-0.0578136516086207,3,13.9133680555556,29.9
2.23333333333333,11.8224634029608,19.7438638601352,4.53574683740037,-0.0681767547733916,3,13.9133680555556,29.9
2.26666666666667,11.8230586269766,19.893802648762,4.46065509122671,-0.0750917461736549,3,13.9133680555556,29.9
2.3,11.8236523498632,20.0411522145128,4.38039559912444,-0.0802594921022726,3,13.9133680555556,29.9
2.33333333333333,11.8242435538535,20.185769406011,4.29671507689789,-0.0836805222265546,3,13.9133680555556,29.9
2.36666666666667,11.8248312635951,20.3275398558337,4.20959392176477,-0.0871211551331186,3,13.9133680555556,29.9
2.4,11.8254145694958,20.4663776036676,4.12075605437053,-0.0888378673942416,3,13.9133680555556,29.9
2.43333333333333,11.8259926528267,20.6022258092237,4.03022451934487,-0.0905315350256544,3,13.9133680555556,29.9
2.46666666666667,11.8265647025358,20.7350280381158,3.93800024542336,-0.0922242739215076,3,13.9133680555556,29.9
2.5,11.827129818468,20.8646988251588,3.84234005868118,-0.0956601867421867,3,13.9133680555556,29.9
2.53333333333333,11.8276869060467,20.9910949711001,3.74152275707349,-0.10081730160769,3,13.9133680555556,29.9
2.56666666666667,11.8282346681411,21.1140159115388,3.63382747818025,-0.107695278893234,3,13.9133680555556,29.9
2.6,11.8287716986714,21.2332320652901,3.51923411045216,-0.114593367728087,3,13.9133680555556,29.9
2.63333333333333,11.8292968048907,21.3485713123416,3.40121060983598,-0.118023500616181,3,13.9133680555556,29.9
2.66666666666667,11.8298088920139,21.459890650239,3.27803642730017,-0.123174182535818,3,13.9133680555556,29.9
2.7,11.8303070782778,21.567104893684,3.15490140937637,-0.123135017923794,3,13.9133680555556,29.9
2.73333333333333,11.8307908144553,21.6702153651737,3.03180651305422,-0.123094896322149,3,13.9133680555556,29.9
2.76666666666667,11.8312596689282,21.7692524753995,2.9104962901897,-0.121310222864518,3,13.9133680555556,29.9
2.8,11.8317131007933,21.8642175789257,2.78748302140701,-0.123013268782693,3,13.9133680555556,29.9
2.83333333333333,11.8321504671533,21.955082971351,2.6645109285977,-0.122972092809312,3,13.9133680555556,29.9
2.86666666666667,11.8325712673513,22.0418500192422,2.5415800647608,-0.122930863836904,3,13.9133680555556,29.9
2.9,11.8329751532319,22.1245491558429,2.42043430701448,-0.121145757746318,3,13.9133680555556,29.9
2.93333333333333,11.8333616945758,22.2031817429993,2.29758542268262,-0.122848884331858,3,13.9133680555556,29.9
2.96666666666667,11.8337303884541,22.2777202726355,2.17482465260022,-0.122760770082396,3,13.9133680555556,29.9
3,11.8340809534151,22.3481784717057,2.05300302428685,-0.121821628313373,3,13.9133680555556,29.9
3.03333333333333,11.8344133171014,22.4146088859663,1.93326853430176,-0.119734489985093,3,13.9133680555556,29.9
3.06666666666667,11.8347275516117,22.4770885432279,1.8159762351513,-0.117292299150458,3,13.9133680555556,29.9
3.1,11.8350237872774,22.5356998777418,1.70116000683217,-0.114816228319134,3,13.9133680555556,29.9
3.13333333333333,11.8353021801761,22.5905242978117,1.5887473929818,-0.112412613850367,3,13.9133680555556,29.9
3.16666666666667,11.8355629029358,22.6416410903305,1.47869153368882,-0.110055859292985,3,13.9133680555556,29.9
3.2,11.8358061423067,22.6891277406468,1.37092557188129,-0.107765961807527,3,13.9133680555556,29.9
3.23333333333333,11.8360320952705,22.7330597504233,1.2654021253331,-0.105523446548187,3,13.9133680555556,29.9
3.26666666666667,11.8362409672926,22.7735107861943,1.16205207667479,-0.103350048658315,3,13.9133680555556,29.9
3.3,11.8364329688985,22.8105523199294,1.06082784382674,-0.101224232848047,3,13.9133680555556,29.9
3.33333333333333,11.8366083243648,22.8442558740457,0.961788042634935,-0.0990398011918044,3,13.9133680555556,29.9
3.36666666666667,11.8367672835439,22.8746958601417,0.865021583784781,-0.0967664588501541,3,13.9133680555556,29.9
3.4,11.8369101147444,22.9019481388197,0.77050352259739,-0.0945180611873913,3,13.9133680555556,29.9
3.43333333333333,11.8370372154751,22.92611455537,0.679846523015385,-0.0906569995820048,3,13.9133680555556,29.9
3.46666666666667,11.8371488447366,22.9472639344334,0.589474818681695,-0.0903717043336899,3,13.9133680555556,29.9
3.5,11.8372451354055,22.9654350718023,0.5011569015155,-0.0883179171661956,3,13.9133680555556,29.9
3.53333333333333,11.8373264987229,22.9807260112912,0.416661521261173,-0.0844953802543262,3,13.9133680555556,29.9
3.56666666666667,11.8373932214378,22.993205625706,0.332463526337049,-0.0841979949241248,3,13.9133680555556,29.9
3.6,11.8374455882107,23.0029406480847,0.25197110491049,-0.0804924214265585,3,13.9133680555556,29.9
3.63333333333333,11.8374840104817,23.0100241845702,0.173369680173634,-0.0786014247368562,3,13.9133680555556,29.9
3.66666666666667,11.8375087718395,23.0145201722363,0.0967479013194304,-0.0766217788542035,3,13.9133680555556,29.9
3.7,11.8375204423013,23.0165542664718,0.0256932810505294,-0.071054620268901,3,13.9133680555556,29.9
3.73333333333333,11.8375205922284,23.0164700765527,0.0119405839777258,-0.0137526970728036,5,13.9133680555556,29.9
3.76666666666667,11.8375174920307,23.0160743370873,0.00155271387900087,-0.010387870098725,5,13.9133680555556,29.9
3.8,11.8375174920307,23.0160743370873,0.00210400502809086,0.000551291149089994,5,13.9133680555556,29.9
3.83333333333333,11.8375174920307,23.0160743370873,0.00288864044888998,0.000784635420799124,5,13.9133680555556,29.9
3.86666666666667,11.8375174920307,23.0160743370873,0.0038301531754742,0.000941512726584213,5,13.9133680555556,29.9
3.9,11.8375174920307,23.0160743370873,0.00482913598995844,0.000998982814484241,5,13.9133680555556,29.9
3.93333333333333,11.8375174920307,23.0160743370873,0.00577787173739451,0.000948735747436071,5,13.9133680555556,29.9
3.96666666666667,11.8375174920307,23.0160743370873,0.00657346286901381,0.000795591131619302,5,13.9133680555556,29.9
4,11.8375174920307,23.0160743370873,0.00712856649132186,0.000555103622308046,5,13.9133680555556,29.9
4.03333333333333,11.8375174920307,23.0160743370873,0.00737918354600464,0.000250617054682782,5,13.9133680555556,29.9
4.06666666666667,11.8375174920307,23.0160743370873,0.00728927848044281,-8.99050655618246e-05,5,13.9133680555556,29.9
4.1,11.8375174920307,23.0160743370873,0.00685229691666314,-0.000436981563779672,5,13.9133680555556,29.9
4.13333333333333,11.8375174920307,23.0160743370873,0.00618827321015149,-0.000664023706511648,5,13.9133680555556,29.9
4.16666666666667,11.8375192978682,23.0164689210305,0.0209227339473765,0.014734460737225,5,13.9133680555556,29.9
4.2,11.8375247057661,23.0176505625122,0.0508395799835459,0.0299168460361694,4,13.9133680555556,29.9
4.23333333333333,11.837535653253,23.0200421331748,0.0928347268004448,0.0419951468168989,4,13.9133680555556,29.9
4.26666666666667,11.8375536508562,23.0239721575867,0.142928206785873,0.0500934799854285,4,13.9133680555556,29.9
4.3,11.8375792551819,23.0295586860361,0.192129891545062,0.0492016847591886,4,13.9133680555556,29.9
4.33333333333333,11.8376123412856,23.0367677879243,0.24023756189058,0.0481076703455185,4,13.9133680555556,29.9
4.36666666666667,11.8376527814883,23.0455611040807,0.287179512972234,0.0469419510816536,4,13.9133680555556,29.9
4.4,11.8377004688353,23.055900403308,0.333003597887821,0.0458240849155874,4,13.9133680555556,29.9
4.43333333333333,11.8377553260811,23.0677492003737,0.377756827297194,0.0447532294093729,4,13.9133680555556,29.9
4.46666666666667,11.8378173047173,23.0810724481362,0.421477591100785,0.0437207638035906,4,13.9133680555556,29.9
4.5,11.8378863829606,23.0958362736307,0.46419758382272,0.0427199927219352,4,13.9133680555556,29.9
4.53333333333333,11.8379625620682,23.1120076322071,0.50593028270586,0.0417326988831404,4,13.9133680555556,29.9
4.56666666666667,11.8380458592445,23.1295534998688,0.546668865102016,0.0407385823961551,4,13.9133680555556,29.9
4.6,11.8381363023085,23.1484407186539,0.586413438417211,0.0397445733151958,4,13.9133680555556,29.9
4.63333333333333,11.8382339251753,23.1686362543148,0.625170948822685,0.038757510405474,4,13.9133680555556,29.9
4.66666666666667,11.8383387622122,23.1901073895104,0.662953190253721,0.0377822414310354,4,13.9133680555556,29.9
4.7,11.8384508418594,23.2128218694288,0.699777588841214,0.0368243985874934,4,13.9133680555556,29.9
4.73333333333333,11.838570182161,23.2367484957825,0.735694955956577,0.0359173671153631,4,13.9133680555556,29.9
4.76666666666667,11.8386967884355,23.2618581273511,0.770768991394862,0.0350740354382849,4,13.9133680555556,29.9
4.8,11.8388306464357,23.2881235467485,0.805051427907907,0.0342824365130449,4,13.9133680555556,29.9
4.83333333333333,11.8389717155105,23.3155190951267,0.83858447533901,0.0335330474311034,4,13.9133680555556,29.9
4.86666666666667,11.8391199235841,23.3440203968924,0.871403233761202,0.0328187584221911,4,13.9133680555556,29.9
4.9,11.8392751641272,23.373604153537,0.903537465970099,0.0321342322088972,4,13.9133680555556,29.9
4.93333333333333,11.8394372947165,23.4042478769971,0.935000021676478,0.0314625557063793,4,13.9133680555556,29.9
4.96666666666667,11.8396061333587,23.4359287226064,0.965760002954003,0.0307599812775249,4,13.9133680555556,29.9
5,11.8397814589925,23.4686228126487,0.99579276241546,0.0300327594614571,4,13.9133680555556,29.9
5.03333333333333,11.8399630191023,23.5023057016001,1.02508760732218,0.0292948449067163,4,13.9133680555556,29.9
5.06666666666667,11.8401505384217,23.5369527301741,1.0536421534471,0.028554546124919,4,13.9133680555556,29.9
5.1,11.8403437285339,23.5725392953428,1.08146201584183,0.0278198623947379,4,13.9133680555556,29.9
5.13333333333333,11.8405422981898,23.6090410868623,1.10855877190468,0.0270967560628466,4,13.9133680555556,29.9
5.16666666666667,11.8407459636808,23.646434251758,1.13494794842967,0.0263891765249877,4,13.9133680555556,29.9
5.2,11.8409544592524,23.6846955961704,1.1606574652674,0.025709516837729,4,13.9133680555556,29.9
5.23333333333333,11.8411675489635,23.7238032318615,1.18573351229709,0.0250760470296911,4,13.9133680555556,29.9
5.26666666666667,11.8413850351248,23.763736751164,1.21021908149918,0.0244855692020953,4,13.9133680555556,29.9
5.3,11.8416067674091,23.8044778869607,1.23422239468276,0.0240033131835784,4,13.9133680555556,29.9
5.33333333333333,11.8418326656948,23.8460144408526,1.25799646080786,0.0237740661250976,4,13.9133680555556,29.9
5.36666666666667,11.8420627415332,23.8883443345162,1.28188549376119,0.0238890329533343,4,13.9133680555556,29.9
5.4,11.8422971086297,23.9314777913061,1.30627769942383,0.0243922056626376,4,13.9133680555556,29.9
5.43333333333333,11.842535985481,23.9754383015649,1.33157573871489,0.0252980392910593,4,13.9133680555556,29.9
5.46666666666667,11.8427796909051,24.0202624978562,1.35815966944462,0.0265839307297258,4,13.9133680555556,29.9
5.5,11.8430286327924,24.0659989641305,1.38636387880153,0.028204209356909,4,13.9133680555556,29.9
5.53333333333333,11.8432832927843,24.1127064743053,1.41646473725952,0.0301008584579927,4,13.9133680555556,29.9
5.56666666666667,11.8435442099099,24.1604522007454,1.4486955145981,0.032230777338583,4,13.9133680555556,29.9
5.6,11.8438119689954,24.2093109745072,1.48328874238311,0.0345932277850087,4,13.9133680555556,29.9
5.63333333333333,11.8440871940157,24.2593655009258,1.52048035132213,0.0371916089390238,4,13.9133680555556,29.9
5.66666666666667,11.8443704177406,24.3107060320594,1.56048143010565,0.0400010787835132,4,13.9133680555556,29.9
5.7,11.8446617195024,24.3634289206991,1.60344227959214,0.0429608494864937,4,13.9133680555556,29.9
5.73333333333333,11.8449611230062,24.4176343049881,1.64943900584474,0.0459967262526011,4,13.9133680555556,29.9
5.76666666666667,11.8452687441463,24.4734236188492,1.69847440813954,0.0490354022948023,4,13.9133680555556,29.9
5.8,11.8455848089963,24.5308973250667,1.75049188805126,0.0520174799117157,4,13.9133680555556,29.9
5.83333333333333,11.8459096678325,24.5901536736792,1.8054270647903,0.0549351767390431,4,13.9133680555556,29.9
5.86666666666667,11.8462438100845,24.6512896640806,1.86328116041037,0.0578540956200639,4,13.9133680555556,29.9
5.9,11.8465878794019,24.7144040922293,1.92416264214314,0.060881481732769,4,13.9133680555556,29.9
5.93333333333333,11.8469426820307,24.7796012295503,1.98829186153345,0.064129219390316,4,13.9133680555556,29.9
5.96666666666667,11.8473091863852,24.8469944815827,2.05599043555439,0.0676985740209419,4,13.9133680555556,29.9
6,11.8476885063155,24.916708216564,2.12755803574484,0.0715676001904479,4,13.9133680555556,29.9
6.03333333333333,11.8480818479703,24.9888734465998,2.20307446705779,0.0755164313129448,4,13.9133680555556,29.9
6.06666666666667,11.8484904336388,25.0636196140269,2.28237245653239,0.0792979894746013,4,13.9133680555556,29.9
6.1,11.8489154313765,25.1410676904545,2.36513118574668,0.0827587292142939,4,13.9133680555556,29.9
6.13333333333333,11.8493579039392,25.2213267013492,2.45096449937307,0.0858333136263867,4,13.9133680555556,29.9
6.16666666666667,11.8498187730147,25.3044923108191,2.53946088279777,0.0884963834247019,4,13.9133680555556,29.9
