Time,x_ego,y_ego,velocity,acceleration,action,x_ped,y_ped
0,11.8,8.9,7,0,1,15.5,29.9
0.0333333333333333,11.8000050239754,9.13327037938497,6.9961557920016,-0.00384420799839713,1,15.5,29.9
0.0666666666666667,11.8000364590159,9.36640659844544,6.99196960881558,-0.00418618318602615,1,15.5,29.9
0.1,11.8001113188567,9.59940075198631,6.98769545752512,-0.00427415129046071,1,15.5,29.9
0.133333333333333,11.8002384260877,9.83225377064896,6.98349864021808,-0.00419681730703836,1,15.5,29.9
0.166666666666667,11.800420857524,10.0649678362208,6.97935743301714,-0.00414120720093614,1,15.5,29.9
0.2,11.8006581354087,10.297544515251,6.97525623296871,-0.00410120004842884,1,15.5,29.9
0.233333333333333,11.8009479059849,10.5299849346551,6.97118386748851,-0.00407236548020062,1,15.5,29.9
0.266666666666667,11.8012870500132,10.7622899077708,6.96713235738301,-0.0040515101055032,1,15.5,29.9
0.3,11.8016723054688,10.9944600244411,6.96309601065073,-0.00403634673228304,1,15.5,29.9
0.333333333333333,11.8021005482247,11.2264957151713,6.95907076491207,-0.00402524573865559,1,15.5,29.9
0.366666666666667,11.802568883657,11.4583972967393,6.95505371638783,-0.00401704852424434,1,15.5,29.9
0.4,11.8030746704902,11.6901650045992,6.9510427859671,-0.00401093042072898,1,15.5,29.9
0.433333333333333,11.8036155492886,11.9217990158806,6.9470364835561,-0.00400630241099709,1,15.5,29.9
0.466666666666667,11.8041894999802,12.1532994661265,6.94303378344402,-0.00400270011207926,1,15.5,29.9
0.5,11.8047949176709,12.3846664625093,6.93903397141636,-0.00399981202766142,1,15.5,29.9
0.533333333333333,11.8054306787373,12.6159000894334,6.93503643141148,-0.00399754000487818,1,15.5,29.9
0.566666666666667,11.8060961687347,12.8470004121947,6.93104071491432,-0.00399571649715824,1,15.5,29.9
0.6,11.8067912549183,13.0779674832102,6.92704655210164,-0.00399416281268028,1,15.5,29.9
0.633333333333333,11.8075162024304,13.3088013461875,6.92305375418018,-0.00399279792145979,1,15.5,29.9
0.666666666666667,11.8082715483185,13.5395020384786,6.91906218497975,-0.00399156920043264,1,15.5,29.9
0.7,11.8090579571826,13.7700695929004,6.91507174505195,-0.00399043992780346,1,15.5,29.9
0.733333333333333,11.8098760846605,14.0005040391742,6.91108236068597,-0.0039893843659744,1,15.5,29.9
0.766666666666667,11.8107264706695,14.2308054050423,6.90709397649583,-0.0039883841901398,1,15.5,29.9
0.8,11.8116094755459,14.460973717093,6.90310655052825,-0.00398742596758161,1,15.5,29.9
0.833333333333333,11.8125252618211,14.6910090013192,6.89912005107662,-0.00398649945163054,1,15.5,29.9
0.866666666666667,11.8134738150894,14.9209112834457,6.89513445456794,-0.00398559650867902,1,15.5,29.9
0.9,11.8144549911599,15.1506805890712,6.8911497440428,-0.00398471052513916,1,15.5,29.9
0.933333333333333,11.8154685742862,15.3803169436841,6.88716590789872,-0.00398383614408093,1,15.5,29.9
0.966666666666667,11.8165143325013,15.6098203726107,6.88318293871796,-0.00398296918076202,1,15.5,29.9
1,11.8175920599418,15.8391909009473,6.8792008321335,-0.00398210658445564,1,15.5,29.9
1.03333333333333,11.8187016011417,16.068428553514,6.87521958577616,-0.00398124635734298,1,15.5,29.9
1.06666666666667,11.8198428572452,16.2975333548486,6.87123919838001,-0.00398038739614837,1,15.5,29.9
1.1,11.8210157778804,16.5265053292433,6.86725966911046,-0.00397952926955636,1,15.5,29.9
1.13333333333333,11.8222203445173,16.7553445008127,6.86328099713961,-0.00397867197084167,1,15.5,29.9
1.16666666666667,11.8234565514352,16.9840508935751,6.85930318145066,-0.00397781568895716,1,15.5,29.9
1.2,11.8247243893229,17.2126245315292,6.85532622081994,-0.00397696063071873,1,15.5,29.9
1.23333333333333,11.8260238345986,17.4410654387099,6.85135011391023,-0.00397610690971284,1,15.5,29.9
1.26666666666667,11.8273548454086,17.6693736392167,6.84737485940839,-0.00397525450183345,1,15.5,29.9
1.3,11.8287173634587,17.8975491572157,6.84340045615302,-0.00397440325537612,1,15.5,29.9
1.33333333333333,11.8301113196845,18.1255920169191,6.83942690321647,-0.00397355293654389,1,15.5,29.9
1.36666666666667,11.831536641368,18.3535022425555,6.83545419992733,-0.00397270328913901,1,15.5,29.9
1.4,11.8329932585689,18.5812798583383,6.83148234583779,-0.00397185408954392,1,15.5,29.9
1.43333333333333,11.8344811084349,18.8089248884433,6.82751134065376,-0.00397100518403182,1,15.5,29.9
1.46666666666667,11.8360001368165,19.0364373569976,6.82354118415093,-0.00397015650282828,1,15.5,29.9
1.5,11.8375502974017,19.2638172880824,6.81957187609845,-0.00396930805247742,1,15.5,29.9
1.53333333333333,11.8391315491339,19.4910647057459,6.81560341620541,-0.0039684598930414,1,15.4777777777778,29.9
1.56666666666667,11.8407438529116,19.7181796340214,6.81163580409663,-0.0039676121087826,1,15.4111111111111,29.9
1.6,11.8423871685156,19.9451620969459,6.80766903931604,-0.00396676478058477,1,15.3,29.9
1.63333333333333,11.8440614524394,20.1720121185742,6.80370312135007,-0.00396591796596901,1,15.1698412698413,29.9
1.66666666666667,11.8457666569365,20.3987297229865,6.79973804966057,-0.00396507168950855,1,15.0460317460317,29.9
1.7,11.8475027302412,20.6253149342884,6.79577382371718,-0.00396422594338031,1,14.9285714285714,29.9
1.73333333333333,11.8492696176561,20.8517677766053,6.79181044302158,-0.00396338069560187,1,14.8174603174603,29.9
1.76666666666667,11.8510672630666,21.0780882740733,6.78784790711939,-0.00396253590219331,1,14.7126984126984,29.9
1.8,11.8528956104418,21.3042764508289,6.7838862155998,-0.00396169151959214,1,14.6142857142857,29.9
1.83333333333333,11.8547546049838,21.5303323310011,6.77992536808549,-0.00396084751431047,1,14.5222222222222,29.9
1.86666666666667,11.8566441937429,21.7562559387061,6.7759653642173,-0.00396000386818685,1,14.4365079365079,29.9
1.9,11.8585635061612,21.9820473043089,6.77200614066175,-0.00395922355555189,1,14.3571428571429,29.9
1.93333333333333,11.8605089899436,22.2077064794588,6.76804767835023,-0.00395846231151609,1,14.284126984127,29.9
1.96666666666667,11.862477784227,22.4332335121541,6.76409003145195,-0.0039576468982796,1,14.2174603174603,29.9
2,11.8644683652384,22.6586284410107,6.76013323494638,-0.00395679650557401,1,14.1571428571429,29.9
2.03333333333333,11.8664801638812,22.8838912974507,6.75617730645962,-0.00395592848675985,1,14.1031746031746,29.9
2.06666666666667,11.8685132140262,23.1090221079875,6.7522222512355,-0.00395505522411899,1,14.0555555555556,29.9
2.1,11.8705673923817,23.3339627669607,6.74478026232046,-0.00744198891503522,1,14.0142857142857,29.9
2.13333333333333,11.8726375886172,23.5580499069835,6.70102282181713,-0.0437574405033345,3,13.9793650793651,29.9
2.16666666666667,11.8747126370151,23.7799285313386,6.61227879990544,-0.0887440219116851,3,13.9507936507936,29.9
2.2,11.8767819058638,23.9983590110022,6.4941410035288,-0.118137796376649,3,13.9285714285714,29.9
2.23333333333333,11.8788367426943,24.2123907396472,6.3483587313372,-0.145782272191594,3,13.9126984126984,29.9
2.26666666666667,11.8808687459009,24.4211597532683,6.17838154808598,-0.169977183251226,3,13.9031746031746,29.9
2.3,11.8828715843228,24.6240903532403,5.99805668512711,-0.180324862958866,3,13.9,29.9
2.33333333333333,11.8848410848947,24.8208950619569,5.81083145566661,-0.187225229460497,3,13.9,29.9
2.36666666666667,11.8867732462066,25.0113442478472,5.61672973204772,-0.194101723618889,3,13.9,29.9
2.4,11.8886629556623,25.1951218746125,5.41054297111069,-0.206186760937033,3,13.9,29.9
2.43333333333333,11.890503620634,25.3718542095765,5.19401641675388,-0.216526554356809,3,13.9,29.9
2.46666666666667,11.8922873108062,25.5412831314541,4.97233895444373,-0.221677462310155,3,13.9,29.9
2.5,11.8940075320751,25.7033234938287,4.75069858533999,-0.221640369103739,3,13.9,29.9
2.53333333333333,11.8956571824962,25.8579766465259,4.52909440765395,-0.221604177686042,3,13.9,29.9
2.56666666666667,11.8972274956326,26.0052439572506,4.30752556544385,-0.2215688422101,3,13.9,29.9
2.6,11.8987071790552,26.1451259026843,4.08591233248955,-0.221613232954293,3,13.9,29.9
2.63333333333333,11.9000835678917,26.2776199988696,3.86421443107933,-0.221697901410219,3,13.9,29.9
2.66666666666667,11.9013443326507,26.4027244320769,3.64247822747575,-0.221736203603586,3,13.9,29.9
2.7,11.9024787466165,26.5204386467723,3.42073752976672,-0.221740697709027,3,13.9,29.9
2.73333333333333,11.9034794234363,26.6307629573211,3.19901687987907,-0.221720649887656,3,13.9,29.9
2.76666666666667,11.9043457387551,26.7336982491385,2.97733368617664,-0.221683193702422,3,13.9,29.9
2.8,11.9050834961424,26.8292457948847,2.75569987479656,-0.221633811380087,3,13.9,29.9
2.83333333333333,11.9057034589994,26.91740713747,2.53412319115139,-0.221576683645163,3,13.9,29.9
2.86666666666667,11.9062198332135,26.9981840121689,2.31260826845835,-0.22151492269304,3,13.9,29.9
2.9,11.9066483983807,27.071579182914,2.09132011172259,-0.221288156735761,3,13.9,29.9
2.93333333333333,11.9070047067205,27.1376236359483,1.87191102465838,-0.219409087064217,3,13.9,29.9
2.96666666666667,11.9073030648728,27.1964050868535,1.65564155518242,-0.216269469475955,3,13.9,29.9
3,11.9075555376351,27.2480349558083,1.44286295610202,-0.212778599080401,3,13.9,29.9
3.03333333333333,11.9077715648134,27.2926329576809,1.23375976684467,-0.20910318925735,3,13.9,29.9
3.06666666666667,11.9079580225047,27.3303235049003,1.0284365416182,-0.205323225226468,3,13.9,29.9
3.1,11.9081195433075,27.3612356913303,0.827110294848668,-0.201326246769532,3,13.9,29.9
3.13333333333333,11.9082589939915,27.3855062706468,0.629928225215366,-0.197182069633302,3,13.9,29.9
3.16666666666667,11.9083779406794,27.403272798103,0.436883013292066,-0.1930452119233,3,13.9,29.9
3.2,11.9084772109793,27.4146751655576,0.248082736355956,-0.18880027693611,3,13.9,29.9
3.23333333333333,11.9085572996505,27.4198545436977,0.0635938889558644,-0.184488847400092,3,13.9,29.9
3.26666666666667,11.9086236627101,27.4195196698933,0.0345731472368961,-0.0290207417189683,3,13.9,29.9
3.3,11.9087165444334,27.4183717377379,0.00159847914486751,-0.0329746680920286,3,13.9,29.9
3.33333333333333,11.9087165444334,27.4183717377379,0.00202524844432385,0.000426769299456333,5,13.8991319444444,29.9
3.36666666666667,11.9087165444334,27.4183717377379,0.00331984057799237,0.00129459213366853,5,13.8965277777778,29.9
3.4,11.9087165444334,27.4183717377379,0.00530376625045661,0.00198392567246424,5,13.8921875,29.9
3.43333333333333,11.9087165444334,27.4183717377379,0.00772069761679338,0.00241693136633677,5,13.8861111111111,29.9
3.46666666666667,11.9087165444334,27.4183717377379,0.0102759682890403,0.00255527067224696,5,13.8782986111111,29.9
3.5,11.9087165444334,27.4183717377379,0.0126731196105149,0.00239715132147456,5,13.86875,29.9
3.53333333333333,11.9087165444334,27.4183717377379,0.0146449050622103,0.00197178545169542,5,13.8574652777778,29.9
3.56666666666667,11.9087165444334,27.4183717377379,0.015977039712448,0.00133213465023764,5,13.8444444444444,29.9
3.6,11.9087165444334,27.4183717377379,0.0165238397132965,0.000546800000848516,5,13.8296875,29.9
3.63333333333333,11.9087165444334,27.4183717377379,0.0162156775971054,-0.000308162116191044,5,13.8131944444444,29.9
3.66666666666667,11.9087165444334,27.4183717377379,0.0150588378711188,-0.00115683972598664,5,13.7949652777778,29.9
3.7,11.9087165444334,27.4183717377379,0.0131288657155945,-0.0019299721555243,5,13.775,29.9
3.73333333333333,11.9087165444334,27.4183717377379,0.0105588465531572,-0.00257001916243731,5,13.7532986111111,29.9
3.76666666666667,11.9087165444334,27.4183717377379,0.0075242368231708,-0.00303460972998638,5,13.7298611111111,29.9
3.8,11.9087165444334,27.4183717377379,0.00422589891846919,-0.00329833790470162,5,13.7046875,29.9
3.83333333333333,11.9087165444334,27.4183717377379,0.000872897119683262,-0.00335300179878592,5,13.6777777777778,29.9
3.86666666666667,11.9087165444334,27.4183717377379,0.00233358647931019,0.00146068935962693,5,13.6491319444444,29.9
3.9,11.9087165444334,27.4183717377379,0.00521412660873416,0.00288054012942397,5,13.61875,29.9
3.93333333333333,11.9087165444334,27.4183717377379,0.00762194141442253,0.00240781480568837,5,13.5866319444444,29.9
3.96666666666667,11.9087165444334,27.4183717377379,0.00945033590028284,0.00182839448586031,5,13.5527777777778,29.9
4,11.9087165444334,27.4183717377379,0.0106365581818839,0.00118622228160108,5,13.5171875,29.9
4.03333333333333,11.9087165444334,27.4183717377379,0.0111622027360556,0.00052564455417165,5,13.4798611111111,29.9
4.06666666666667,11.9087165444334,27.4183717377379,0.0110505252197201,-0.000111677516335467,5,13.4407986111111,29.9
4.1,11.9087165444334,27.4183717377379,0.0103612065903635,-0.000689318629356566,5,13.4,29.9
4.13333333333333,11.9087165444334,27.4183717377379,0.00918321619180752,-0.00117799039855601,5,13.3574652777778,29.9
4.16666666666667,11.9087165444334,27.4183717377379,0.00762647502015915,-0.00155674117164838,5,13.3131944444444,29.9
4.2,11.9087165444334,27.4183717377379,0.00581301645732202,-0.00181345856283713,5,13.2671875,29.9
4.23333333333333,11.9087165444334,27.4183717377379,0.00386829036123004,-0.00194472609609198,5,13.2194444444444,29.9
4.26666666666667,11.9087165444334,27.4183717377379,0.0019131676353843,-0.00195512272584574,5,13.1699652777778,29.9
4.3,11.9087165444334,27.4183717377379,5.70874627856515e-05,-0.00185608017259865,5,13.11875,29.9
4.33333333333333,11.9087165444334,27.4183717377379,0.0016073403476638,0.00155025288487815,5,13.0657986111111,29.9
4.36666666666667,11.9087165444334,27.4183717377379,0.00300809923878674,0.00140075889112293,5,13.0111111111111,29.9
4.4,11.9087165444334,27.4183717377379,0.00409584567491385,0.00108774643612711,5,12.9546875,29.9
4.43333333333333,11.9087165444334,27.4183717377379,0.00484436955510726,0.000748523880193415,5,12.8965277777778,29.9
4.46666666666667,11.9087165444334,27.4183717377379,0.00524959603712758,0.000405226482020318,5,12.8366319444444,29.9
4.5,11.9087165444334,27.4183717377379,0.00532736274662942,7.7766709501834e-05,5,12.775,29.9
4.53333333333333,11.9087165444334,27.4183717377379,0.00511025502730319,-0.000217107719326226,5,12.7116319444444,29.9
4.56666666666667,11.9087165444334,27.4183717377379,0.00464380617222878,-0.000466448855074411,5,12.6465277777778,29.9
4.6,11.9087165444334,27.4183717377379,0.00398237116683175,-0.000661435005397026,5,12.5796875,29.9
4.63333333333333,11.9087165444334,27.4183717377379,0.00318496430853283,-0.000797406858298919,5,12.5111111111111,29.9
4.66666666666667,11.9087165444334,27.4183717377379,0.00231131695547177,-0.000873647353061063,5,12.4407986111111,29.9
4.7,11.9087165444334,27.4183717377379,0.00141836590312902,-0.000892951052342753,5,12.36875,29.9
4.73333333333333,11.9087165444334,27.4183717377379,0.00055732994964296,-0.000861035953486058,5,12.2949652777778,29.9
4.76666666666667,11.9087165444334,27.4183717377379,0.000228523613278285,-0.000328806336364674,5,12.2194444444444,29.9
4.8,11.9087165444334,27.4183717377379,0.00090537566862952,0.000676852055351234,5,12.1421875,29.9
4.83333333333333,11.9087165444334,27.4183717377379,0.00144961871789229,0.000544243049262772,5,12.0631944444444,29.9
4.86666666666667,11.9087165444334,27.4183717377379,0.0018479343941502,0.000398315676257905,5,11.9824652777778,29.9
4.9,11.9087165444334,27.4183717377379,0.00209676738159235,0.000248832987442154,5,11.9,29.9
4.93333333333333,11.9087165444334,27.4183717377379,0.00220130349227511,0.000104536110682756,5,11.8157986111111,29.9
4.96666666666667,11.9087165444334,27.4183717377379,0.00217407517670673,-2.72283155683759e-05,5,11.7298611111111,29.9
5,11.9087165444334,27.4183717377379,0.00203332377215525,-0.000140751404551479,5,11.6421875,29.9
5.03333333333333,11.9087165444334,27.4183717377379,0.0018012452436871,-0.000232078528468154,5,11.5527777777778,29.9
5.06666666666667,11.9087165444334,27.4183717377379,0.00150223636963093,-0.000299008874056164,5,11.4616319444444,29.9
5.1,11.9087165444334,27.4183717377379,0.00116124284839701,-0.00034099352123392,5,11.36875,29.9
5.13333333333333,11.9087165444334,27.4183717377379,0.000802291366714468,-0.000358951481682546,5,11.2741319444444,29.9
5.16666666666667,11.9087165444334,27.4183717377379,0.000447265982931295,-0.000355025383783173,5,11.1777777777778,29.9
5.2,11.9087165444334,27.4183717377379,0.000114966853239805,-0.00033229912969149,5,11.0796875,29.9
5.23333333333333,11.9087165444334,27.4183717377379,0.000179532212635178,6.4565359395373e-05,5,10.9798611111111,29.9
5.26666666666667,11.9087165444334,27.4183717377379,0.000425230459533881,0.000245698246898703,5,10.8782986111111,29.9
5.3,11.9087165444334,27.4183717377379,0.000615270976379071,0.00019004051684519,5,10.775,29.9
5.33333333333333,11.9087165444334,27.4183717377379,0.000746768656949834,0.000131497680570763,5,10.6699652777778,29.9
5.36666666666667,11.9087165444334,27.4183717377379,0.000820437935759565,7.36692788097309e-05,5,10.5631944444444,29.9
5.4,11.9087165444334,27.4183717377379,0.000840068620371098,1.96306846115336e-05,5,10.4546875,29.9
5.43333333333333,11.9087165444334,27.4183717377379,0.000811900255755809,-2.81683646152893e-05,5,10.3444444444444,29.9
5.46666666666667,11.9087165444334,27.4183717377379,0.000743944347502628,-6.79559082531804e-05,5,10.2324652777778,29.9
5.5,11.9087165444334,27.4183717377379,0.000645299956155609,-9.86443913470196e-05,5,10.11875,29.9
5.53333333333333,11.9087165444334,27.4183717377379,0.000525502258601442,-0.000119797697554167,5,10.0032986111111,29.9
5.56666666666667,11.9087165444334,27.4183717377379,0.000393936296198734,-0.000131565962402707,5,9.88611111111111,29.9
5.6,11.9087165444334,27.4183717377379,0.000259339929562051,-0.000134596366636684,5,9.7671875,29.9
5.63333333333333,11.9087165444334,27.4183717377379,0.000129411590304055,-0.000129928339257996,5,9.64652777777778,29.9
5.66666666666667,11.9087165444334,27.4183717377379,1.05302827002289e-05,-0.000118881307603826,5,9.52413194444444,29.9
5.7,11.9087165444334,27.4183717377379,9.2412126828136e-05,8.18818441279072e-05,5,9.4,29.9
5.73333333333333,11.9087165444334,27.4183717377379,0.000176072661412876,8.36605345847399e-05,5,9.27413194444444,29.9
5.76666666666667,11.9087165444334,27.4183717377379,0.000238624456581162,6.25517951682858e-05,5,9.14652777777778,29.9
5.8,11.9087165444334,27.4183717377379,0.000279644606642291,4.10201500611288e-05,5,9.0171875,29.9
5.83333333333333,11.9087165444334,27.4183717377379,0.000299940114773263,2.02955081309727e-05,5,8.88611111111111,29.9
5.86666666666667,11.9087165444334,27.4183717377379,0.00030133042711784,1.39031234457646e-06,5,8.75329861111111,29.9
5.9,11.9087165444334,27.4183717377379,0.000286404838012104,-1.49255891057357e-05,5,8.61875,29.9
5.93333333333333,11.9087165444334,27.4183717377379,0.000258271850561787,-2.81329874503171e-05,5,8.48246527777778,29.9
5.96666666666667,11.9087165444334,27.4183717377379,0.00022031557937235,-3.79562711894373e-05,5,8.34444444444444,29.9
6,11.9087165444334,27.4183717377379,0.000175971719746269,-4.43438596260806e-05,5,8.2046875,29.9
6.03333333333333,11.9087165444334,27.4183717377379,0.000128532708474861,-4.74390112714082e-05,5,8.06319444444445,29.9
6.06666666666667,11.9087165444334,27.4183717377379,8.09886796419695e-05,-4.75440288328912e-05,5,7.91996527777778,29.9
6.1,11.9087165444334,27.4183717377379,3.59078643242342e-05,-4.50808153177353e-05,5,7.775,29.9
6.13333333333333,11.9087165444334,27.4183717377379,4.6426463879456e-06,-3.12652179362886e-05,5,7.62829861111111,29.9
6.16666666666667,11.9087165444334,27.4183717377379,3.91372383050558e-05,3.44945919171102e-05,5,7.47986111111111,29.9
6.2,11.9087165444334,27.4183717377379,6.65966262458164e-05,2.74593879407606e-05,5,7.3296875,29.9
6.23333333333333,11.9087165444334,27.4183717377379,8.65621110102656e-05,1.99654847644492e-05,5,7.17777777777778,29.9
6.26666666666667,11.9087165444334,27.4183717377379,9.90451149779481e-05,1.24830039676825e-05,5,7.02413194444444,29.9
6.3,11.9087165444334,27.4183717377379,0.000104458380880865,5.41326590291642e-06,5,6.86875,29.9
6.33333333333333,11.9087165444334,27.4183717377379,0.000103535297167027,-9.23083713837841e-07,5,6.71163194444445,29.9
6.36666666666667,11.9087165444334,27.4183717377379,9.72435200021258e-05,-6.29177716490093e-06,5,6.55277777777778,29.9
