Time,x_ego,y_ego,velocity,acceleration,action,x_ped,y_ped
0,11.8,8.9,5,0,1,15.5,29.9
0.0333333333333333,11.7999963843224,9.06666666666225,0,-5,3,15.5,29.9
0.0666666666666667,11.7999963843224,9.06666666666225,3.94206987317973e-06,3.94206987317973e-06,5,15.5,29.9
0.1,11.7999963843224,9.06666666666225,6.09354603844522e-05,5.69933905112724e-05,5,15.5,29.9
0.133333333333333,11.7999963834865,9.06704120148741,0.0230153379323614,0.022954402471977,4,15.5,29.9
0.166666666666667,11.7999963805132,9.06824529230274,0.0501368829861856,0.0271215450538242,4,15.5,29.9
0.2,11.7999963706836,9.07046179691643,0.0834604993252624,0.0333236163390768,4,15.5,29.9
0.233333333333333,11.7999963419212,9.07384125551657,0.119694860230292,0.0362343609050294,4,15.5,29.9
0.266666666666667,11.7999962700537,9.07846045154249,0.157686650741465,0.037991790511173,4,15.5,29.9
0.3,11.7999961134124,9.08436317087865,0.196593329732908,0.038906678991443,4,15.5,29.9
0.333333333333333,11.7999958076601,9.09156916152379,0.235802932684916,0.0392096029520087,4,15.5,29.9
0.366666666666667,11.7999952612844,9.10008120691998,0.274916259028448,0.0391133263435312,4,15.5,29.9
0.4,11.7999943521686,9.10989236821915,0.31372522212097,0.0388089630925228,4,15.5,29.9
0.433333333333333,11.7999929255282,9.12099004577464,0.352088026053848,0.0383628039328778,4,15.5,29.9
0.466666666666667,11.7999907934293,9.13335764566892,0.389904506952483,0.0378164808986343,4,15.5,29.9
0.5,11.7999877360595,9.14697576442357,0.427105025411104,0.0372005184586213,4,15.5,29.9
0.533333333333333,11.7999835048479,9.16182305435984,0.463641943607341,0.0365369181962375,4,15.5,29.9
0.566666666666667,11.7999778274356,9.17787670834503,0.499471665468605,0.0358297218612638,4,15.5,29.9
0.6,11.7999704144097,9.19511235368116,0.53454884332982,0.0350771778612149,4,15.5,29.9
0.633333333333333,11.7999609676067,9.21350436086609,0.568844722300465,0.0342958789706449,4,15.5,29.9
0.666666666666667,11.7999491896756,9.23302636959525,0.602344020129912,0.0334992978294473,4,15.5,29.9
0.7,11.7999347934817,9.25368036306481,0.636761192491325,0.0344171723614127,4,15.5,29.9
0.733333333333333,11.799917509702,9.27552579624006,0.673827775451965,0.03706658296064,4,15.5,29.9
0.766666666666667,11.7998970962873,9.29859326287032,0.710085722085089,0.0362579466331236,4,15.5,29.9
0.8,11.799873347875,9.32285581027196,0.745541500788124,0.0354557787030355,4,15.5,29.9
0.833333333333333,11.7998461028713,9.34828733717779,0.780232218707504,0.0346907179193801,4,15.5,29.9
0.866666666666667,11.7998152511244,9.37486289184495,0.814189533910555,0.0339573152030511,4,15.5,29.9
0.9,11.7997807395057,9.40255850980873,0.847441004945305,0.0332514710347492,4,15.5,29.9
0.933333333333333,11.7997425749514,9.43135109068194,0.880011058049194,0.0325700531038891,4,15.5,29.9
0.966666666666667,11.7997008246585,9.46121830122476,0.911921391148911,0.0319103330997171,4,15.5,29.9
1,11.7996556133165,9.49213824464165,0.943168261350118,0.0312468702012076,4,15.5,29.9
1.03333333333333,11.7996071175462,9.52408817064097,0.973713890137652,0.0305456287875331,4,15.5,29.9
1.06666666666667,11.7995555574427,9.55704427802308,1.00353556925109,0.0298216791134355,4,15.5,29.9
1.1,11.7995011855485,9.5909822386833,1.03262323123359,0.0290876619825053,4,15.5,29.9
1.13333333333333,11.7994442738709,9.62587752878812,1.06097525491461,0.0283520236810142,4,15.5,29.9
1.16666666666667,11.7993850995487,9.66170570952059,1.08859800865919,0.0276227537445815,4,15.5,29.9
1.2,11.7993239299157,9.6984426554217,1.11550349556326,0.0269054869040681,4,15.5,29.9
1.23333333333333,11.7992610077915,9.73606471330595,1.1417083261062,0.0262048305429399,4,15.5,29.9
1.26666666666667,11.7991965377724,9.77454902501524,1.16724653412928,0.0255382080230846,4,15.5,29.9
1.3,11.7991306742738,9.81387413015758,1.19216305796498,0.0249165238357012,4,15.5,29.9
1.33333333333333,11.7990635123941,9.85401996432279,1.21649623592605,0.024333177961068,4,15.5,29.9
1.36666666666667,11.7989950821266,9.89496763830613,1.24027849514465,0.0237822592185957,4,15.5,29.9
1.4,11.7989253462806,9.93669926438656,1.26353770566535,0.0232592105207039,4,15.5,29.9
1.43333333333333,11.7988542023412,9.97919782183416,1.28629818816951,0.0227604825041623,4,15.5,29.9
1.46666666666667,11.7987814882403,10.0224470517059,1.30858146682223,0.0222832786527152,4,15.5,29.9
1.5,11.7987069917333,10.0664313735798,1.3304068346129,0.0218253677906743,4,15.5,29.9
1.53333333333333,11.7986304628086,10.1111358187898,1.35179178056456,0.0213849459516573,4,15.4972222222222,29.9
1.56666666666667,11.7985516283227,10.1565459590872,1.37275004485458,0.0209582642900208,4,15.4888888888889,29.9
1.6,11.7984702080003,10.2026476148557,1.39328261109057,0.0205325662359943,4,15.475,29.9
1.63333333333333,11.7983859305519,10.2494265888716,1.41338989828149,0.0201072871909211,4,15.4555555555556,29.9
1.66666666666667,11.7982985485321,10.2968687711926,1.43307646522896,0.0196865669474697,4,15.4305555555556,29.9
1.7,11.7982078510589,10.3449602538384,1.452349668916,0.0192732036870336,4,15.4,29.9
1.73333333333333,11.7981136735053,10.393687407029,1.47121869775375,0.0188690288377487,4,15.3666666666667,29.9
1.76666666666667,11.7980159034893,10.44303692796,1.48969387711251,0.018475179358763,4,15.3333333333333,29.9
1.8,11.7979144828104,10.4929958699189,1.50778617383569,0.0180922967231805,4,15.3,29.9
1.83333333333333,11.7978094053335,10.5435516574451,1.52550684590904,0.0177206720733527,2,15.2666666666667,29.9
1.86666666666667,11.7977007111657,10.5946920916823,1.54286719778763,0.017360351878587,2,15.2333333333333,29.9
1.9,11.7975884777775,10.6464053489362,1.55987841240855,0.0170112146209198,2,15.2,29.9
1.93333333333333,11.7974728089563,10.6986799746159,1.57655143864205,0.0166730262334971,2,15.1666666666667,29.9
1.96666666666667,11.7973538226259,10.7515048664595,1.59289560581376,0.0163441671717108,2,15.1333333333333,29.9
2,11.7972316387961,10.8048690602511,1.60890886406923,0.0160132582554704,2,15.1,29.9
2.03333333333333,11.7971063685318,10.8587614551184,1.62458786684959,0.0156790027803644,2,15.0666666666667,29.9
2.06666666666667,11.7969781043121,10.9131709187967,1.63993381265179,0.0153459458021967,2,15.0333333333333,29.9
2.1,11.7968469127235,10.9680864142747,1.65495101909914,0.0150172064473528,2,15,29.9
2.13333333333333,11.796712829882,11.0234970856384,1.6696458918889,0.0146948727897562,2,14.9666666666667,29.9
2.16666666666667,11.7965758596456,11.0793923145992,1.68402618189521,0.0143802900063112,2,14.9333333333333,29.9
2.2,11.7964359744364,11.1357617559614,1.69810045324586,0.0140742713506545,2,14.9,29.9
2.23333333333333,11.7962931183086,11.1925953580673,1.71187770550217,0.0137772522563042,2,14.8666666666667,29.9
2.26666666666667,11.7961472117672,11.2498833726242,1.72536710810057,0.013489402598406,2,14.8333333333333,29.9
2.3,11.7959981577788,11.3076163571172,1.73857781631912,0.0132107082185415,2,14.8,29.9
2.33333333333333,11.7958458484089,11.3657851721284,1.75151884622444,0.0129410299053221,2,14.7666666666667,29.9
2.36666666666667,11.7956901715612,11.4243809752372,1.76419899209144,0.0126801458670072,2,14.7333333333333,29.9
2.4,11.7955310173601,11.4833952127054,1.77662677422939,0.0124277821379455,2,14.7,29.9
2.43333333333333,11.7953682838063,11.5428196098021,1.78881040841322,0.0121836341838275,2,14.6666666666667,29.9
2.46666666666667,11.7952018814199,11.6026461603776,1.80075779051661,0.0119473821033873,2,14.6333333333333,29.9
2.5,11.7950317366723,11.6628671156756,1.8124763912019,0.0117186006852916,2,14.6,29.9
2.53333333333333,11.7948577941237,11.7234749486499,1.82397171422382,0.0114953230219255,2,14.5666666666667,29.9
2.56666666666667,11.7946800172444,11.7844622828029,1.83524696603205,0.0112752518082293,2,14.5333333333333,29.9
2.6,11.7944983882365,11.8458216268739,1.84628903035286,0.011042064320812,2,14.5,29.9
2.63333333333333,11.7943129071158,11.9075448579686,1.85707881736916,0.0107897870162987,2,14.4666666666667,29.9
2.66666666666667,11.7941235883263,11.9696235357847,1.86761897262376,0.0105401552545952,2,14.4333333333333,29.9
2.7,11.7939304557635,12.0320496081092,1.87792548758624,0.0103065149624859,2,14.4,29.9
2.73333333333333,11.7937335384086,12.0948154428754,1.8880050627774,0.0100795751911578,2,14.3666666666667,29.9
2.76666666666667,11.7935328665823,12.157913432825,1.89785518065013,0.00985011787272905,2,14.3333333333333,29.9
2.8,11.793328467826,12.2213359220758,1.90747578588734,0.00962060523720965,2,14.3,29.9
2.83333333333333,11.7931203630828,12.2850752848965,1.91686868960144,0.0093929037140954,2,14.2666666666667,29.9
2.86666666666667,11.7929085638142,12.3491239862535,1.92603706951651,0.00916837991507014,2,14.2333333333333,29.9
2.9,11.7926930704742,12.4134745326932,1.93497951474979,0.0089424452332838,2,14.2,29.9
2.93333333333333,11.7924738723618,12.4781193659555,1.94369505840393,0.00871554365414062,2,14.1666666666667,29.9
2.96666666666667,11.7922509481961,12.5430509896365,1.95218975039373,0.00849469198980235,2,14.1333333333333,29.9
3,11.7920242672908,12.6082622841976,1.96047841978896,0.00828866939522932,2,14.1,29.9
3.03333333333333,11.791793791911,12.673746610925,1.96857413896644,0.00809571917748086,2,14.0666666666667,29.9
3.06666666666667,11.791559480656,12.7394976382199,1.97648085678357,0.0079067178171246,2,14.0333333333333,29.9
3.1,11.7913212922309,12.805509036636,1.98419712784653,0.00771627106296058,2,14,29.9
3.13333333333333,11.7910791882758,12.8717744702794,1.99172373499871,0.00752660715218179,2,13.9666666666667,29.9
3.16666666666667,11.7908331357278,12.938287560786,1.99905601381438,0.00733227881567378,2,13.9333333333333,29.9
3.2,11.7905831087849,13.0050417273588,2.00618863542277,0.00713262160839068,2,13.9,29.9
3.23333333333333,11.790329089437,13.072030291796,2.01312056731336,0.00693193189058583,2,13.8666666666667,29.9
3.26666666666667,11.7900710674616,13.1392464957173,2.01984618329469,0.00672561598132848,2,13.8333333333333,29.9
3.3,11.7898090403078,13.2066833212725,2.02635798506889,0.00651180177419697,2,13.8,29.9
3.33333333333333,11.7895430117757,13.2743336031514,2.03265460835612,0.00629662328723812,2,13.7666666666667,29.9
3.36666666666667,11.789272990253,13.3421902029328,2.03873833291466,0.00608372455853923,2,13.7333333333333,29.9
3.4,11.7889989871546,13.4102460698792,2.0446121898862,0.00587385697153531,2,13.7,29.9
3.43333333333333,11.7887210154415,13.4784942929142,2.05028168337432,0.00566949348811985,2,13.6666666666667,29.9
3.46666666666667,11.7884390882163,13.5469281806765,2.0557543188509,0.00547263547658705,2,13.6333333333333,29.9
3.5,11.7881532176108,13.6155413127625,2.06103872765049,0.0052844087995858,2,13.6,29.9
3.53333333333333,11.7878634139705,13.6843275665233,2.06614406131604,0.00510533366554844,2,13.5666666666667,29.9
3.56666666666667,11.7875696853064,13.7532811271095,2.07107958156628,0.00493552025023991,2,13.5333333333333,29.9
3.6,11.7872720369748,13.8223964863219,2.07585439068384,0.00477480911756478,2,13.5,29.9
3.63333333333333,11.7869704715628,13.891668429885,2.08047620847187,0.00462181778802995,2,13.4666666666667,29.9
3.66666666666667,11.7866649896431,13.9610918024466,2.08493902787642,0.00446281940455107,2,13.4333333333333,29.9
3.7,11.7863555911675,14.030661138488,2.08923410128268,0.00429507340625745,2,13.4,29.9
3.73333333333333,11.7860422754853,14.1003707912457,2.09335901438376,0.0041249131010761,2,13.3666666666667,29.9
3.76666666666667,11.7857250413341,14.1702151114569,2.09731573088024,0.00395671649647689,2,13.3333333333333,29.9
3.8,11.7854038871082,14.2401885661787,2.10110905001848,0.00379331913824377,2,13.3,29.9
3.83333333333333,11.7850788113029,14.3102858138943,2.10474550478132,0.00363645476284313,2,13.2666666666667,29.9
3.86666666666667,11.7847498130342,14.3805017486186,2.10823258711808,0.00348708233675987,2,13.2333333333333,29.9
3.9,11.7844168925364,14.4508315223898,2.11157821329932,0.0033456261812419,2,13.2,29.9
3.93333333333333,11.7840800515539,14.5212705530029,2.1147903636843,0.00321215038497646,2,13.1666666666667,29.9
3.96666666666667,11.7837392935592,14.5918145219397,2.11787684774143,0.00308648405713052,2,13.1333333333333,29.9
4,11.7833946237584,14.6624593660314,2.12084515790285,0.00296831016141708,2,13.1,29.9
4.03333333333333,11.7830460488871,14.7332012627728,2.12370184019938,0.00285668229653524,2,13.0666666666667,29.9
4.06666666666667,11.7826935775054,14.8040364316659,2.12643907050442,0.00273723030503481,2,13.0333333333333,29.9
4.1,11.7823372217386,14.8749605351112,2.12903624780174,0.00259717729731923,2,13,29.9
4.13333333333333,11.7819769968179,14.9459686808531,2.13148143276604,0.00244518496430235,2,12.9666666666667,29.9
4.16666666666667,11.7816129195934,15.0170557114503,2.13377021845593,0.002288785689887,2,12.9333333333333,29.9
4.2,11.7812450074148,15.0882164155512,2.13590344804519,0.00213322958926287,2,12.9,29.9
4.23333333333333,11.780873277367,15.1594456729103,2.13788549933425,0.00198205128906404,2,12.8666666666667,29.9
4.26666666666667,11.7804977458079,15.2307385499518,2.13972301467089,0.00183751533663301,2,12.8333333333333,29.9
4.3,11.780118428151,15.3020903590003,2.14142397584784,0.00170096117695318,2,12.8,29.9
4.33333333333333,11.7797353388283,15.3734966912692,2.14299704260981,0.00157306676197422,2,12.7666666666667,29.9
4.36666666666667,11.7793484896297,15.444953841372,2.14449963224736,0.00150258963754668,2,12.7333333333333,29.9
4.4,11.7789578692412,15.5164636019196,2.14621643191882,0.00171679967146376,2,12.7,29.9
4.43333333333333,11.7785634182129,15.5880387804671,2.14847774727547,0.00226131535664864,2,12.6666666666667,29.9
4.46666666666667,11.7781650278067,15.6597027049801,2.15158802210755,0.00311027483207926,2,12.6333333333333,29.9
4.5,11.7777625394796,15.7314883842312,2.15583541488095,0.00424739277340258,2,12.6,29.9
4.53333333333333,11.7773557410135,15.8034383201976,2.16147676690315,0.00564135202219296,2,12.5666666666667,29.9
4.56666666666667,11.7769443730231,15.8756019625798,2.16869252023197,0.00721575332881752,2,12.5333333333333,29.9
4.6,11.7765281263638,15.9480353190047,2.17769482720815,0.00900230697618865,2,12.5,29.9
4.63333333333333,11.7761066358545,16.0208015078632,2.18870335727171,0.0110085300635574,2,12.4666666666667,29.9
4.66666666666667,11.7756794764948,16.0939708795564,2.20191526478768,0.0132119075159678,2,12.4333333333333,29.9
4.7,11.7752461665536,16.1676198081111,2.21751068220904,0.0155954174213648,2,12.4,29.9
4.73333333333333,11.7748061640127,16.2418310925876,2.23569457948221,0.0181838972731643,4,12.3666666666667,29.9
4.76666666666667,11.7743588619082,16.3166947024968,2.25669078490984,0.0209962054276329,4,12.3333333333333,29.9
4.8,11.773903584147,16.3923084700032,2.28075375674578,0.0240629718359395,4,12.3,29.9
4.83333333333333,11.7734395772275,16.4687796069501,2.30818705027583,0.0274332935300539,4,12.2666666666667,29.9
4.86666666666667,11.7729660033242,16.5462258280434,2.33932321054028,0.0311361602644427,4,12.2333333333333,29.9
4.9,11.7724819288261,16.6247772126206,2.37457426398757,0.0352510534472912,4,12.2,29.9
4.93333333333333,11.7719863090814,16.7045785595192,2.41440256801093,0.0398283040233647,4,12.1666666666667,29.9
4.96666666666667,11.7714779796076,16.7857901335427,2.45926110458441,0.0448585365734777,4,12.1333333333333,29.9
5,11.7709556586123,16.8685859429911,2.50950648193851,0.0502453773541038,4,12.1,29.9
5.03333333333333,11.7704179685586,16.9531485959456,2.56527370613812,0.0557672241996059,4,12.0666666666667,29.9
5.06666666666667,11.7698634899937,17.0396604918263,2.62642262080721,0.0611489146690913,4,12.0333333333333,29.9
5.1,11.7692908099897,17.1282957007893,2.69260617837003,0.0661835575628169,4,12,29.9
5.13333333333333,11.7686985515173,17.2192143048839,2.76334341008184,0.0707372317118078,4,11.9666666666667,29.9
5.16666666666667,11.7680853931149,17.3125589119748,2.83807399887046,0.074730588788622,4,11.9333333333333,29.9
5.2,11.7674500830315,17.4084526805308,2.91619658985232,0.0781225909818621,4,11.9,29.9
5.23333333333333,11.7667914497282,17.506998493473,2.9971039883629,0.0809073985105786,4,11.8666666666667,29.9
5.26666666666667,11.7661084064471,17.6082795858819,3.08022941864143,0.083125430278534,4,11.8333333333333,29.9
5.3,11.7653999511616,17.7123611866125,3.16506036187634,0.0848309432349081,4,11.8,29.9
5.33333333333333,11.7646651646849,17.8192924485773,3.25114556939428,0.0860852075179368,4,11.7666666666667,29.9
5.36666666666667,11.7639032069066,17.9291084727718,3.33809172229395,0.0869461528996762,4,11.7333333333333,29.9
5.4,11.7631133118177,18.0418321641804,3.42556088557669,0.0874691632827322,4,11.7,29.9
5.43333333333333,11.7622947799588,18.157476085122,3.51326969212341,0.0877088065467251,4,11.6666666666667,29.9
5.46666666666667,11.7614469692993,18.2760441389674,3.60097510485952,0.0877054127361117,4,11.6333333333333,29.9
5.5,11.7605692924534,18.3975318724972,3.68841637605096,0.0874412711914401,4,11.6,29.9
5.53333333333333,11.7596612126164,18.5219268243236,3.77539062188613,0.0869742458351643,4,11.5666666666667,29.9
5.56666666666667,11.7587222241591,18.6492113114976,3.86178415015257,0.0863935282664428,4,11.5333333333333,29.9
5.6,11.7577518343609,18.7793649781805,3.94754576254148,0.0857616123889113,4,11.5,29.9
5.63333333333333,11.7567495507161,18.91236646957,4.03266322481293,0.0851174622714521,4,11.4666666666667,29.9
5.66666666666667,11.7557148732988,19.0481943828751,4.11714282999692,0.0844796051839891,4,11.4333333333333,29.9
5.7,11.7546472913505,19.1868276619494,4.2009981096028,0.083855279605876,4,11.4,29.9
5.73333333333333,11.7535462822375,19.3282457260108,4.28424220153881,0.0832440919360078,4,11.3666666666667,29.9
5.76666666666667,11.7524113131778,19.4724282578033,4.36687583637779,0.0826336348389862,4,11.3333333333333,29.9
5.8,11.7512418457064,19.6193546462564,4.44887993824042,0.0820041018626272,4,11.3,29.9
5.83333333333333,11.7500373421624,19.7690031903677,4.5302043080037,0.0813243697632808,4,11.2666666666667,29.9
5.86666666666667,11.7487972828773,19.9213488524792,4.61067163619313,0.0804673281894281,4,11.2333333333333,29.9
5.9,11.7475211963996,20.0763593375875,4.69010403072952,0.0794323945363935,4,11.2,29.9
5.93333333333333,11.7462086238038,20.2340005339215,4.76851991914261,0.0784158884130823,4,11.1666666666667,29.9
5.96666666666667,11.7448591195564,20.394236742246,4.84578868267947,0.0772687635368694,4,11.1333333333333,29.9
6,11.7434722817411,20.5570269064082,4.92174316765731,0.0759544849778377,4,11.1,29.9
6.03333333333333,11.7420477582396,20.7223242679229,4.9962035897547,0.0744604220973892,4,11.0666666666667,29.9
6.06666666666667,11.7405852462719,20.8900769272285,5.06907769035774,0.0728741006030393,4,11.0333333333333,29.9
6.1,11.7390844607614,21.0602323945216,5.14037712261003,0.0712994322522942,4,11,29.9
6.13333333333333,11.7375451464695,21.2327362979251,5.20996137667191,0.0695842540618763,4,10.9666666666667,29.9
6.16666666666667,11.7359671342601,21.4075255741005,5.27736253617063,0.0674011594987176,4,10.9333333333333,29.9
6.2,11.7343505452272,21.58450386741,5.34094697733568,0.0635844411650508,4,10.9,29.9
6.23333333333333,11.73269613074,21.7635019470833,5.39799832939644,0.0570513520607649,4,10.8666666666667,29.9
6.26666666666667,11.7310056451348,21.944237140493,5.44454933806905,0.0465510086726102,4,10.8333333333333,29.9
6.3,11.7292818873521,22.1263150897262,5.47858321681097,0.0340338787419174,4,10.8,29.9
6.33333333333333,11.7275278078528,22.3093417720678,5.50202640447588,0.0234431876649044,4,10.7666666666667,29.9
6.36666666666667,11.7257457384024,22.4930151410903,5.51782170905282,0.0157953045769457,1,10.7333333333333,29.9
6.4,11.7239374309001,22.6771179120668,5.52810776708126,0.0102860580284378,1,10.7,29.9
6.43333333333333,11.722105258321,22.8613788592325,5.52754344433473,-0.000564322746528845,1,10.6666666666667,29.9
6.46666666666667,11.7202526365142,23.0454267507494,5.51549357502096,-0.0120498693137678,1,10.6333333333333,29.9
6.5,11.7183826020008,23.2289504827084,5.49621846689169,-0.0192751081292757,3,10.6,29.9
6.53333333333333,11.7164992148801,23.4115459217053,5.45988844225929,-0.0363300246323943,3,10.5666666666667,29.9
6.56666666666667,11.7146079044308,23.5926811961994,5.40867726830046,-0.0512111739588335,3,10.5333333333333,29.9
