Time,x_ego,y_ego,velocity,acceleration,action,x_ped,y_ped
0,11.8,8.9,5,0,1,15.5,29.9
0.0333333333333333,11.7999963849159,9.06660768883747,4.99642262383768,-0.00357737616232345,1,15.5,29.9
0.0666666666666667,11.7999731931147,9.23309265291487,4.99264768180993,-0.00377494202774908,1,15.5,29.9
0.1,11.799916633104,9.39944929503992,4.98873172454986,-0.00391595726007044,1,15.5,29.9
0.133333333333333,11.7998187588898,9.56567361580513,4.98471522676415,-0.00401649778570246,1,15.5,29.9
0.166666666666667,11.7996764593977,9.73176275995304,4.98062710743408,-0.00408811933007236,1,15.5,29.9
0.2,11.7994902181123,9.89771469230113,4.97648802629002,-0.00413908114406425,1,15.5,29.9
0.233333333333333,11.7992629022974,10.0635279664076,4.97231276513208,-0.00417526115793354,1,15.5,29.9
0.266666666666667,11.7989987367914,10.2292015592328,4.96811192693604,-0.00420083819604322,1,15.5,29.9
0.3,11.7987025219883,10.3947347526023,4.96389313678642,-0.00421879014962556,1,15.5,29.9
0.333333333333333,11.7983790857285,10.5601270478827,4.95966188828662,-0.00423124849979217,1,15.5,29.9
0.366666666666667,11.7980329207334,10.7253781043321,4.95542214251403,-0.00423974577259845,1,15.5,29.9
0.4,11.7976679501918,10.8904876944443,4.95117675526774,-0.00424538724628842,1,15.5,29.9
0.433333333333333,11.7972873754047,11.0554556715765,4.94692778420367,-0.00424897106407052,1,15.5,29.9
0.466666666666667,11.7968935799033,11.2202819465084,4.94267671060444,-0.00425107359923071,1,15.5,29.9
0.5,11.7964880840536,11.3849664705289,4.93842459960157,-0.00425211100286038,1,15.5,29.9
0.533333333333333,11.7960715560574,11.5495092233064,4.93417221574754,-0.00425238385403137,1,15.5,29.9
0.566666666666667,11.7956438869505,11.7139102042761,4.92992010628076,-0.00425210946678245,1,15.5,29.9
0.6,11.7952043300707,11.8781694266109,4.92566866116449,-0.00425144511626829,1,15.5,29.9
0.633333333333333,11.7947516935742,12.0422869130831,4.92141815648432,-0.00425050468017396,1,15.5,29.9
0.666666666666667,11.7942845628271,12.2062626932964,4.91716878589155,-0.00424937059277219,1,15.5,29.9
0.7,11.7938015221214,12.3700968018838,4.91292068343597,-0.00424810245557605,1,15.5,29.9
0.733333333333333,11.7933013445566,12.5337892773584,4.90867394024661,-0.00424674318935736,1,15.5,29.9
0.766666666666667,11.7927831252552,12.6973401613691,4.90442861691291,-0.00424532333370742,1,15.5,29.9
0.8,11.7922463445351,12.8607494981745,4.90018475290683,-0.00424386400607979,1,15.5,29.9
0.833333333333333,11.791690861231,13.0240173342074,4.89594237388592,-0.00424237902090141,1,15.5,29.9
0.866666666666667,11.7911168487361,13.1871437176559,4.89170149727516,-0.00424087661076822,1,15.5,29.9
0.9,11.7905246948757,13.3501286980372,4.88746213624767,-0.00423936102748446,1,15.5,29.9
0.933333333333333,11.7899148899635,13.5129723257751,4.88322430216891,-0.00423783407876144,1,15.5,29.9
0.966666666666667,11.7892879253029,13.6756746518121,4.87898800568719,-0.00423629648172064,1,15.5,29.9
1,11.7886442181711,13.8382357272905,4.87475325682377,-0.0042347488634169,1,15.5,29.9
1.03333333333333,11.7879840709317,14.0006556033264,4.87052006451449,-0.00423319230928421,1,15.5,29.9
1.06666666666667,11.7873076635284,14.1629343308858,4.86628843602957,-0.00423162848492087,1,15.5,29.9
1.1,11.7866150720211,14.3250719607526,4.86205837657205,-0.00423005945751509,1,15.5,29.9
1.13333333333333,11.7859063021609,14.4870685435627,4.85782988919295,-0.0042284873790992,1,15.5,29.9
1.16666666666667,11.7851813264906,14.6489241298739,4.85360297502268,-0.0042269141702711,1,15.5,29.9
1.2,11.7844401156063,14.8106387702381,4.84937763373087,-0.00422534129181251,1,15.5,29.9
1.23333333333333,11.7836826579907,14.9722125152531,4.84515386408999,-0.00422376964088489,1,15.5,29.9
1.26666666666667,11.7829089670161,15.1336454155819,4.84093166451897,-0.00422219957101522,1,15.5,29.9
1.3,11.7821190772638,15.2949375219386,4.83671103350891,-0.00422063101006476,1,15.5,29.9
1.33333333333333,11.7813130344883,15.4560888850537,4.83249196987411,-0.00421906363479874,1,15.5,29.9
1.36666666666667,11.7804908841499,15.6170995556312,4.82827447281981,-0.00421749705429608,1,15.5,29.9
1.4,11.779652662627,15.7779695843146,4.82405854186075,-0.00421593095906392,1,15.5,29.9
1.43333333333333,11.7787983935076,15.9386990216714,4.81984417665301,-0.00421436520774066,1,15.5,29.9
1.46666666666667,11.7779280893615,16.0992879181994,4.81563137680924,-0.00421279984376621,1,15.5,29.9
1.5,11.7770417576971,16.2597363243514,4.81142014175563,-0.00421123505360832,1,15.5,29.9
1.53333333333333,11.7761394087788,16.4200442905703,4.80721047066498,-0.00420967109064829,1,15.5,29.9
1.56666666666667,11.77522106278,16.5802118673234,4.80300236247267,-0.00420810819231132,1,15.5,29.9
1.6,11.7742867542713,16.7402391051263,4.79879581595852,-0.00420654651415209,1,15.5,29.9
1.63333333333333,11.773336533026,16.9001260545502,4.79459082986291,-0.00420498609560838,1,15.5,29.9
1.66666666666667,11.7723704612372,17.0598727662126,4.79038740300129,-0.00420342686162201,1,15.5,29.9
1.7,11.7713886081687,17.2194792907525,4.78618553434691,-0.00420186865437522,1,15.5,29.9
1.73333333333333,11.7703910437887,17.3789456787998,4.78198522306431,-0.00420031128260145,1,15.5,29.9
1.76666666666667,11.7693778329985,17.5382719809446,4.7777864684912,-0.00419875457311036,1,15.5,29.9
1.8,11.7683490317121,17.6974582477146,4.77358927008032,-0.00419719841088284,1,15.5,29.9
1.83333333333333,11.7673046854303,17.8565045295642,4.76939362732116,-0.00419564275915985,1,15.5,29.9
1.86666666666667,11.766244830266,18.0154108768773,4.76519953966367,-0.00419408765748752,1,15.5,29.9
1.9,11.7651694958118,18.1741773399803,4.76100700646208,-0.00419253320158752,1,15.5,29.9
1.93333333333333,11.7640787089005,18.3328039691619,4.75681602694919,-0.00419097951289782,1,15.5,29.9
1.96666666666667,11.7629724972557,18.4912908146932,4.75262660024241,-0.00418942670677236,1,15.5,29.9
2,11.761850892221,18.6496379268444,4.74843872537524,-0.00418787486717775,1,15.5,29.9
2.03333333333333,11.7607139301106,18.8078453560152,4.74425242003757,-0.00418630533766784,1,15.5,29.9
2.06666666666667,11.7595616521102,18.9659131558724,4.74006789919827,-0.00418452083929388,1,15.5,29.9
2.1,11.7583941030041,19.1238413919384,4.73588563666671,-0.00418226253156639,1,15.5,29.9
2.13333333333333,11.7572113292881,19.281630147553,4.73170618684794,-0.00417944981877039,1,15.5,29.9
2.16666666666667,11.7560133772727,19.4392795210358,4.72752982730269,-0.0041763595452462,1,15.5,29.9
2.2,11.754800291666,19.5967896128296,4.72335643239082,-0.00417339491187008,1,15.5,29.9
2.23333333333333,11.753572114843,19.7541605151178,4.71918566114666,-0.00417077124416476,1,15.5,29.9
2.26666666666667,11.7523288868419,19.9113923070448,4.71501708910642,-0.00416857204023913,1,15.5,29.9
2.3,11.751070645962,20.0684850531083,4.71085025404906,-0.00416683505735627,1,15.5,29.9
2.33333333333333,11.7497974297355,20.2254387989734,4.70668443797688,-0.0041658160721818,1,15.5,29.9
2.36666666666667,11.7485092759828,20.382253562765,4.70251880540163,-0.00416563257525038,1,15.5,29.9
2.4,11.7472062235223,20.5389293451525,4.69835330015038,-0.00416550525125015,1,15.5,29.9
2.43333333333333,11.7458883123895,20.6954661547264,4.69418824858284,-0.00416505156753644,1,15.5,29.9
2.46666666666667,11.7445555838012,20.851864010722,4.69002395775401,-0.00416429082883685,1,15.5,29.9
2.5,11.7432080798122,21.0081229410921,4.68586064751033,-0.00416331024368066,1,15.5,29.9
2.53333333333333,11.7418458427857,21.1642429800294,4.68169847520145,-0.00416217230887828,1,15.5,29.9
2.56666666666667,11.7404689148405,21.320224166191,4.67753755338845,-0.0041609218129981,1,15.5,29.9
2.6,11.7390773374225,21.4760665414236,4.67337796253159,-0.00415959085685635,1,15.5,29.9
2.63333333333333,11.7376711510938,21.6317701498523,4.66921976008014,-0.00415820245145326,1,15.5,29.9
2.66666666666667,11.7362503955594,21.787335037227,4.66506298698479,-0.0041567730953469,1,15.5,29.9
2.7,11.7348151098885,21.9427612504568,4.6609076723647,-0.00415531462009433,1,15.5,29.9
2.73333333333333,11.7333653328462,22.0980488372771,4.65675383685346,-0.0041538355112376,1,15.5,29.9
2.76666666666667,11.7319011032345,22.2531978460122,4.65260149499958,-0.00415234185388424,1,15.5,29.9
2.8,11.7304224601587,22.4082083254051,4.64845065698959,-0.00415083800998683,1,15.5,29.9
2.83333333333333,11.7289294431639,22.5630803244953,4.64430132988554,-0.00414932710404869,1,15.5,29.9
2.86666666666667,11.72742209223,22.7178138925307,4.64015351851346,-0.00414781137207765,1,15.5,29.9
2.9,11.725900447649,22.872409078903,4.63600722610069,-0.00414629241277265,1,15.5,29.9
2.93333333333333,11.7243645498346,23.0268659331005,4.63186245473211,-0.0041447713685816,1,15.5,29.9
2.96666666666667,11.7228144391216,23.1811845046744,4.62771920567593,-0.0041432490561828,1,15.5,29.9
3,11.7212501556063,23.3353648432132,4.62357747961561,-0.00414172606031737,1,15.5,29.9
3.03333333333333,11.7196717390606,23.4894069983259,4.61943727681473,-0.00414020280087524,1,15.5,29.9
3.06666666666667,11.7180792289283,23.6433110196293,4.61529859723421,-0.00413867958052805,1,15.5,29.9
3.1,11.7164726643907,23.7970769567404,4.61116144061596,-0.00413715661824465,1,15.5,29.9
3.13333333333333,11.7148520844734,23.9507048592707,4.60702580654324,-0.00413563407271766,1,15.5,29.9
3.16666666666667,11.713217528162,24.1041947768233,4.60289169448451,-0.00413411205872816,1,15.5,29.9
3.2,11.7115690344947,24.2575467589904,4.59875910382582,-0.00413259065869553,1,15.5,29.9
3.23333333333333,11.7099066426144,24.4107608553516,4.59462803389479,-0.00413106993102641,1,15.5,29.9
3.26666666666667,11.7082303917742,24.5638371154724,4.59049848397843,-0.00412954991636738,1,15.5,29.9
3.3,11.7065403213011,24.7167755889025,4.586370453336,-0.00412803064242606,1,15.5,29.9
3.33333333333333,11.704836470537,24.8695763251747,4.5822439412082,-0.00412651212780357,1,15.5,29.9
3.36666666666667,11.7031188787725,25.0222393738036,4.57811894682325,-0.00412499438494596,1,15.5,29.9
3.4,11.7013875851936,25.1747647842844,4.57399546940083,-0.00412347742242414,1,15.5,29.9
3.43333333333333,11.6996426288125,25.3271526098897,4.5698739993498,-0.0041214700510217,1,15.5,29.9
3.46666666666667,11.6978840478461,25.4794029665375,4.56575821951,-0.00411577983980482,1,15.5,29.9
3.5,11.6961118784655,25.6315161509996,4.56165498290784,-0.00410323660215539,1,15.5,29.9
3.53333333333333,11.6943261539448,25.7834927167503,4.55757261518207,-0.00408236772577819,1,15.5,29.9
3.56666666666667,11.6925269042744,25.9353335017983,4.55351967703712,-0.00405293814494367,1,15.5,29.9
3.6,11.6907141561132,26.0870396216023,4.54950416970579,-0.00401550733132972,1,15.5,29.9
3.63333333333333,11.6888879329362,26.238612441848,4.54553301745516,-0.00397115225063338,1,15.5,29.9
3.66666666666667,11.68704825535,26.3900535350885,4.54161166972073,-0.00392134773443242,1,15.5,29.9
3.7,11.6851951415092,26.5413646292054,4.53774399913661,-0.00386767058411763,1,15.5,29.9
3.73333333333333,11.6833286075596,26.6925475558344,4.53393238059958,-0.00381161853702938,1,15.5,29.9
3.76666666666667,11.6814486680806,26.8436042024988,4.53017780705806,-0.00375457354152253,1,15.5,29.9
3.8,11.6795553365355,26.9945364682281,4.52648000562918,-0.00369780142887688,1,15.5,29.9
3.83333333333333,11.6776486257179,27.1453462241821,4.5228375816904,-0.00364242393877579,1,15.5,29.9
3.86666666666667,11.6757285482397,27.2960352747885,4.51924790072527,-0.00358968096513745,1,15.5,29.9
3.9,11.6737950218455,27.4466134058729,4.51662523866054,-0.00262266206472184,1,15.5,29.9
3.93333333333333,11.67184689904,27.5971800679729,4.51944289050028,0.00281765183973626,1,15.5,29.9
3.96666666666667,11.669881275341,27.7479795394972,4.53077301358226,0.0113301230819776,1,15.5,29.9
4,11.6678945804582,27.8993045493445,4.55096536297455,0.0201923493922944,4,15.5,29.9
4.03333333333333,11.6658831751341,28.0514436437057,4.57949411108661,0.02852874811206,4,15.5,29.9
4.06666666666667,11.6638435960534,28.2046596849474,4.61543652190177,0.03594241081516,4,15.5,29.9
4.1,11.6617726330485,28.3591834737886,4.6578172873521,0.042380765450325,4,15.5,29.9
4.13333333333333,11.6596673373694,28.5152139492078,4.70570542625846,0.047888138906365,4,15.5,29.9
4.16666666666667,11.6575250254911,28.6729194192234,4.75818697079115,0.0524815445326823,4,15.5,29.9
4.2,11.6553432969559,28.8324381210182,4.8143810740947,0.0561941033035591,4,15.5,29.9
4.23333333333333,11.6531200374434,28.9938801964095,4.87348818714721,0.059107113052506,4,15.5,29.9
4.26666666666667,11.6508534116786,29.1573304568259,4.934779107303,0.0612909201557876,4,15.5,29.9
4.3,11.6485418641436,29.3228503238892,4.99758774929657,0.0628086419935752,4,15.5,29.9
4.33333333333333,11.646184106918,29.4904804341369,5.06132550688904,0.0637377575924694,4,15.5,29.9
4.36666666666667,11.6437791162792,29.6602421654283,5.12542381297727,0.0640983060882307,4,15.5,29.9
4.4,11.6413261215378,29.8321393599766,5.18940775893989,0.0639839459626161,4,15.5,29.9
4.43333333333333,11.6388245725696,30.0061613060983,5.25288344389995,0.0634756849600588,4,15.5,29.9
4.46666666666667,11.6362740994056,30.1822859896186,5.31555039076893,0.0626669468689833,4,15.5,29.9
4.5,11.6336744852927,30.3604821031985,5.37717178293097,0.0616213921620377,4,15.5,29.9
4.53333333333333,11.6310256151732,30.5407127213961,5.43763571099327,0.0604639280623047,4,15.5,29.9
4.56666666666667,11.628327434594,30.7229380965078,5.49688128381683,0.0592455728235546,4,15.5,29.9
4.6,11.6255799235085,30.9071173168292,5.55489803159821,0.058016747781382,4,15.5,29.9
4.63333333333333,11.622783074359,31.0932096595864,5.61170411354821,0.0568060819499951,4,15.5,29.9
4.66666666666667,11.6199368802174,31.2811752472051,5.66733029896023,0.055626185412021,4,15.5,29.9
4.7,11.6170413379066,31.4709746890471,5.72174822268275,0.0544179237225206,4,15.5,29.9
4.73333333333333,11.6140964979318,31.6625655248638,5.77483379543366,0.0530855727509136,4,15.5,29.9
4.76666666666667,11.6111024593099,31.8559026464053,5.82656173731187,0.0517279418782124,4,15.5,29.9
4.8,11.6080593274492,32.0509412962038,5.87696787279491,0.0504061354830343,4,15.5,29.9
4.83333333333333,11.6049671965962,32.2476383129173,5.92610784717668,0.049139974381772,4,15.5,29.9
4.86666666666667,11.6018261448273,32.4459524861009,5.97404260949586,0.0479347623191781,4,15.5,29.9
4.9,11.5986362298888,32.6458448322533,6.02084642048539,0.0468038109895277,4,15.5,29.9
4.93333333333333,11.5953974922804,32.8472783729725,6.06652234451467,0.045675924029287,4,15.5,29.9
4.96666666666667,11.5921100651582,33.0502108912346,6.11076139782385,0.0442390533091732,4,15.5,29.9
5,11.5887742603606,33.2545894858183,6.15328993938028,0.0425285415564334,4,15.5,29.9
5.03333333333333,11.5853905094123,33.4603547647459,6.19398763795611,0.0406976985758289,4,15.5,29.9
5.06666666666667,11.5819593054729,33.6674448776921,6.23280996832647,0.038822330370361,4,15.5,29.9
5.1,11.5784811856005,33.8757968403858,6.26973093511481,0.0369209667883368,4,15.5,29.9
5.13333333333333,11.5749567284187,34.0853468200223,6.3047217818606,0.0349908467457931,4,15.5,29.9
5.16666666666667,11.571384536684,34.2961562017768,6.34863985072004,0.043918068859444,4,15.5,29.9
5.2,11.5677569753076,34.5086735907157,6.40579774392741,0.0571578932073695,4,15.5,29.9
5.23333333333333,11.5640683679845,34.7232175360588,6.46942649222583,0.0636287482984157,4,15.5,29.9
5.26666666666667,11.5603157327888,34.9399323387227,6.53562207249094,0.0661955802651146,4,15.5,29.9
5.3,11.5564975955442,35.1588640033963,6.60221544553633,0.0665933730453832,4,15.5,29.9
5.33333333333333,11.5526133282693,35.3800030060165,6.66796768820924,0.0657522426729091,4,15.5,29.9
5.36666666666667,11.5486627560098,35.6033101156828,6.73229214300516,0.0643244547959245,4,15.5,29.9
5.4,11.5446459040361,35.8287332705697,6.79496233193103,0.0626701889258729,4,15.5,29.9
5.43333333333333,11.5405628743035,36.0562162881471,6.85593977167706,0.0609774397460283,4,15.5,29.9
5.46666666666667,11.536413781583,36.2857036482175,6.91529197321333,0.0593522015362726,4,15.5,29.9
5.5,11.5321987200746,36.5171431055428,6.97314122035638,0.0578492471430421,4,15.5,29.9
5.53333333333333,11.5279177472107,36.7504869434496,7.02963287674849,0.0564916563921098,4,15.5,29.9
5.56666666666667,11.5235708764416,36.9856923979667,7.08491639865535,0.0552835219068673,4,15.5,29.9
5.6,11.5191580747063,37.222721573329,7.1391323204683,0.0542159218129505,4,15.5,29.9
5.63333333333333,11.5146792634693,37.4615409997342,7.19240658133544,0.0532742608671386,4,15.5,29.9
5.66666666666667,11.5101343175253,37.7021212468847,7.24485554868007,0.052448967344632,4,15.5,29.9
5.7,11.5055230640583,37.9444365249541,7.296580272606,0.0517247239259246,4,15.5,29.9
5.73333333333333,11.5008452858273,38.188464114996,7.34766411572392,0.0510838431179206,4,15.5,29.9
5.76666666666667,11.4961007267326,38.4341837639144,7.39817156540188,0.0505074496779558,4,15.5,29.9
5.8,11.4912890982852,38.6815771372274,7.44815495426646,0.0499833888645842,4,15.5,29.9
5.83333333333333,11.4864100871383,38.9306273143025,7.49763804595323,0.0494830916867741,4,15.5,29.9
5.86666666666667,11.4814633848604,39.1813171818826,7.54659258746484,0.0489545415116019,4,15.5,29.9
5.9,11.4764487024485,39.4336287221024,7.59499825202335,0.048405664558512,4,15.5,29.9
