Time,x_ego,y_ego,velocity,acceleration,action,x_ped,y_ped
0,11.8,8.9,7,0,1,15.5,29.9
0.0333333333333333,11.7999950604608,9.13327037938529,6.99615579158591,-0.00384420841408595,1,15.4972222222222,29.9
0.0666666666666667,11.7999641537382,9.36640659845764,6.99196960422518,-0.00418618736073029,1,15.4888888888889,29.9
0.1,11.7998905520409,9.59940075209606,6.98769544184844,-0.00427416237673928,1,15.475,29.9
0.133333333333333,11.7997655810578,9.83225377118706,6.98349862571904,-0.00419681612940348,1,15.4555555555556,29.9
0.166666666666667,11.7995862156836,10.0649678473361,6.9793582516158,-0.00414037410324486,1,15.4305555555556,29.9
0.2,11.7993529256276,10.2975446139427,6.9752612529842,-0.0040969986315913,1,15.4,29.9
0.233333333333333,11.7990680250129,10.5299853644451,6.97119974202745,-0.00406151095674989,1,15.3666666666667,29.9
0.266666666666667,11.7987345804624,10.7622911895915,6.96716902039216,-0.0040307216352975,1,15.3333333333333,29.9
0.3,11.7983557987961,10.9944630599178,6.96316627309091,-0.00400274730125094,1,15.3,29.9
0.333333333333333,11.7979347509964,11.2265018732246,6.95918974674127,-0.00397652634963297,1,15.2666666666667,29.9
0.366666666666667,11.7974742820846,11.4584084805446,6.95523825176012,-0.0039514949811581,1,15.2333333333333,29.9
0.4,11.7969769876336,11.6901836993537,6.95131087396903,-0.00392737779108288,1,15.2,29.9
0.433333333333333,11.7964451857303,11.9218283195133,6.94740681637048,-0.0039040575985485,1,15.1666666666667,29.9
0.466666666666667,11.7958808604105,12.153343105285,6.9435253183725,-0.00388149799798043,1,15.1333333333333,29.9
0.5,11.7952855871299,12.3847287953986,6.93966561879756,-0.00385969957494225,1,15.1,29.9
0.533333333333333,11.7946604678009,12.6159861023864,6.93582695129034,-0.0038386675072184,1,15.0666666666667,29.9
0.566666666666667,11.794006103379,12.8471157131558,6.93200862098747,-0.00381833030287648,1,15.0333333333333,29.9
0.6,11.7933226209144,13.0781182917904,6.92821000723899,-0.00379861374847668,1,15,29.9
0.633333333333333,11.7926097559913,13.3089944797154,6.92443041619022,-0.00377959104877323,1,14.9666666666667,29.9
0.666666666666667,11.7918669766301,13.5397448919644,6.92066901916671,-0.00376139702350198,1,14.9333333333333,29.9
0.7,11.7910936252405,13.7703701136663,6.91692489702108,-0.00374412214563158,1,14.9,29.9
0.733333333333333,11.7902890528559,14.0008706982512,6.91319708675665,-0.00372781026443558,1,14.8666666666667,29.9
0.766666666666667,11.7894527240995,14.2312471668799,6.90948460947511,-0.0037124772815389,1,14.8333333333333,29.9
0.8,11.788584279969,14.4615000085062,6.90578649037015,-0.00369811910496232,1,14.8,29.9
0.833333333333333,11.7876835557504,14.6916296810368,6.9021018147917,-0.00368467557844721,1,14.7666666666667,29.9
0.866666666666667,11.7867505605031,14.9216366134533,6.89842971024964,-0.00367210454205846,1,14.7333333333333,29.9
0.9,11.7857854307205,15.1515212058537,6.89476927876995,-0.00366043147968664,1,14.7,29.9
0.933333333333333,11.7847883727877,15.3812839214457,6.89114177793271,-0.0036275008372435,1,14.6666666666667,29.9
0.966666666666667,11.7837595903192,15.6109304112586,6.88789591541961,-0.00324586251310333,1,14.6333333333333,29.9
1,11.7826992002539,15.8404824104566,6.8855624378748,-0.00233347754480384,1,14.6,29.9
1.03333333333333,11.7816072004709,16.0699778037272,6.88456896300096,-0.000993474873847155,1,14.5666666666667,29.9
1.06666666666667,11.7804834702447,16.2994664967966,6.88520546259836,0.000636499597408857,1,14.5333333333333,29.9
1.1,11.779327789471,16.5290055542697,6.88761103099561,0.00240556839724082,1,14.5,29.9
1.13333333333333,11.7781398693713,16.7586542515514,6.89178257301838,0.00417154202277192,1,14.4666666666667,29.9
1.16666666666667,11.7769193862041,16.9884697544255,6.89760024483063,0.00581767181225068,1,14.4333333333333,29.9
1.2,11.775666014397,17.2185031338689,6.90481350804976,0.00721326321913374,1,14.4,29.9
1.23333333333333,11.774379455666,17.4487957918781,6.91312275634736,0.00830924829759727,1,14.3666666666667,29.9
1.26666666666667,11.7730594443134,17.6793802313257,6.92230032866766,0.00917757232030247,1,14.3333333333333,29.9
1.3,11.7717057388673,17.9102826114853,6.93218842610428,0.00988809743661534,1,14.3,29.9
1.33333333333333,11.7703181128147,18.1415245806653,6.94267026582571,0.0104818397214377,1,14.2666666666667,29.9
1.36666666666667,11.7688963471378,18.3731243192371,6.95365247347623,0.0109822076505122,1,14.2333333333333,29.9
1.4,11.7674402249447,18.6050971677986,6.96505856711179,0.0114060936355598,1,14.2,29.9
1.43333333333333,11.7659495264929,18.837456413469,6.97684510459059,0.0117865374788071,1,14.1666666666667,29.9
1.46666666666667,11.7644240236704,19.0702144578425,6.98899817244564,0.0121530678550457,1,14.1333333333333,29.9
1.5,11.76286347893,19.3033833920701,7.00151172438785,0.012513551942213,1,14.1,29.9
1.53333333333333,11.7612676457963,19.5369754118879,7.0144062139316,0.0128944895437497,1,14.0666666666667,29.9
1.56666666666667,11.7596362596728,19.7710048184747,7.02780137426987,0.0133951603382725,1,14.0333333333333,29.9
1.6,11.7579690134594,20.0054921839374,7.0419412831582,0.0141399088883292,1,14,29.9
1.63333333333333,11.7562655421954,20.2404664890091,7.05707972655676,0.0151384433985591,1,13.9666666666667,29.9
1.66666666666667,11.7545254083725,20.4759666584253,7.07358511164962,0.0165053850928523,1,13.9333333333333,29.9
1.7,11.7527480603058,20.7120468141713,7.09199380749732,0.018408695847703,4,13.9,29.9
1.73333333333333,11.7509327934123,20.9487804373859,7.11290749472297,0.0209136872256535,4,13.8666666666667,29.9
1.76666666666667,11.7490787382139,21.1862601027532,7.1368461711529,0.023938676429931,4,13.8333333333333,29.9
1.8,11.7471848800674,21.4245926228857,7.16412602881386,0.0272798576609548,4,13.8,29.9
1.83333333333333,11.745250103158,21.6638912068818,7.1948216978643,0.0306956690504432,4,13.7666666666667,29.9
1.86666666666667,11.7432732308896,21.9042688851874,7.22889147810256,0.0340697802382621,4,13.7333333333333,29.9
1.9,11.7412530284277,22.1458377745194,7.26628690891122,0.0373954308086573,4,13.7,29.9
1.93333333333333,11.739188230192,22.3887053653829,7.306794422286,0.0405075133747816,4,13.6666666666667,29.9
1.96666666666667,11.7370775656495,22.632971484015,7.35017998189402,0.0433855596080175,4,13.6333333333333,29.9
2,11.734919766218,22.878728072392,7.39620415088723,0.046024168993207,4,13.6,29.9
2.03333333333333,11.7327135693482,23.1260594493762,7.44466768366832,0.0484635327810938,4,13.5666666666667,29.9
2.06666666666667,11.730457693587,23.3750461500487,7.49556849768021,0.0509008140118938,4,13.5333333333333,29.9
2.1,11.7281507763906,23.6257729636779,7.5491589980891,0.0535905004088857,4,13.5,29.9
2.13333333333333,11.7257913094627,23.8783365845314,7.60588901332373,0.0567300152346322,4,13.4666666666667,29.9
2.16666666666667,11.7233775913108,24.1328505358641,7.66628879389815,0.0603997805744214,4,13.4333333333333,29.9
2.2,11.7209077169616,24.3894452855669,7.73083914152226,0.0645503476241052,4,13.4,29.9
2.23333333333333,11.7183795866629,24.6482660216794,7.79992528098491,0.0690861394626472,4,13.3666666666667,29.9
2.26666666666667,11.7157909433851,24.9094672777125,7.87369837270032,0.0737730917154096,4,13.3333333333333,29.9
2.3,11.713139446227,25.1732039643325,7.95204602480489,0.0783476521045792,4,13.3,29.9
2.33333333333333,11.7104227362516,25.4396238640119,8.0346529494617,0.0826069246568073,4,13.2666666666667,29.9
2.36666666666667,11.7076384990251,25.7088611151955,8.12102773266057,0.086374783198865,4,13.2333333333333,29.9
2.4,11.7047845132441,25.9810317511439,8.21059023487338,0.0895625022128126,4,13.2,29.9
2.43333333333333,11.701858677134,26.2562320022433,8.30274213808679,0.0921519032134093,4,13.1666666666667,29.9
2.46666666666667,11.6988590170604,26.53453867642,8.39692323211454,0.0941810940277481,4,13.1333333333333,29.9
2.5,11.6957836851277,26.8160107407697,8.49262115281765,0.095697920703115,4,13.1,29.9
2.53333333333333,11.6926309598382,27.1006905814191,8.5893491110665,0.0967279582488523,4,13.0666666666667,29.9
2.56666666666667,11.6893992528994,27.388604614507,8.68663712897094,0.0972880179044324,4,13.0333333333333,29.9
2.6,11.6860871152694,27.6797639166661,8.78403060831856,0.0973934793476285,4,13,29.9
2.63333333333333,11.6826932487193,27.9741642703151,8.88106731033364,0.0970367020150782,4,12.9666666666667,29.9
2.66666666666667,11.6792165152855,28.2717863538989,8.97731023284163,0.0962429225079919,4,12.9333333333333,29.9
2.7,11.6756559327146,28.5725971519432,9.0723778095726,0.0950675767309619,4,12.9,29.9
2.73333333333333,11.6720106610344,28.8765520424062,9.16595801307905,0.0935802035064501,4,12.8666666666667,29.9
2.76666666666667,11.6682799795187,29.1835975753418,9.25783930760776,0.0918812945287151,4,12.8333333333333,29.9
2.8,11.6644632508335,29.4936751730428,9.34792344459304,0.0900841369852756,4,12.8,29.9
2.83333333333333,11.6605598860118,29.8067245153532,9.43619604307473,0.0882725984816943,4,12.7666666666667,29.9
2.86666666666667,11.6565693233848,30.1226855185571,9.52268446748201,0.0864884244072783,4,12.7333333333333,29.9
2.9,11.652491008818,30.4415000469422,9.60748332622121,0.0847988587391999,4,12.7,29.9
2.93333333333333,11.6483243626866,30.7631145732869,9.69077447273568,0.0832911465144655,4,12.6666666666667,29.9
2.96666666666667,11.6440687497995,31.087482415922,9.7727820446236,0.0820075718879281,4,12.6333333333333,29.9
3,11.6397234461473,31.4145660508467,9.85384548873999,0.0810634441163884,4,12.6,29.9
3.03333333333333,11.6352875832562,31.7443410176354,9.93439695243371,0.0805514636937215,4,12.5666666666667,29.9
3.06666666666667,11.6307601116026,32.0767980877228,10.0149118203412,0.0805148679075032,4,12.5333333333333,29.9
3.1,11.6261397826458,32.4119438428107,10.0958484776389,0.0809366572977002,4,12.5,29.9
3.13333333333333,11.6214251691201,32.7497982972748,10.1775350962164,0.0816866185774821,4,12.4666666666667,29.9
3.16666666666667,11.6166147288079,33.0903893782273,10.260125443404,0.0825903471876472,4,12.4333333333333,29.9
3.2,11.6117068621623,33.4337481416798,10.3436624714516,0.083537028047564,4,12.4,29.9
3.23333333333333,11.6066999484657,33.7799058246014,10.4281194649362,0.0844569934846113,4,12.3666666666667,29.9
3.26666666666667,11.6015923718654,34.1288918232796,10.5134132235238,0.0852937585876159,4,12.3333333333333,29.9
3.3,11.5963825436132,34.4807320973965,10.5994274374739,0.0860142139501008,4,12.3,29.9
3.33333333333333,11.5910689103616,34.83544868411,10.6860509524614,0.0866235149875116,4,12.2666666666667,29.9
3.36666666666667,11.5856499415088,35.1930607292486,10.7732223998813,0.0871714474198644,4,12.2333333333333,29.9
3.4,11.5801241148881,35.5535856223438,10.8608896195598,0.0876672196784778,4,12.2,29.9
3.43333333333333,11.5744899215318,35.9170388109918,10.9489874349186,0.0880978153588252,4,12.1666666666667,29.9
3.46666666666667,11.5687458750654,36.2834333228202,11.0374348437839,0.0884474088652691,4,12.1333333333333,29.9
3.5,11.5628905267392,36.6527789417403,11.1261151698743,0.0886803260904561,4,12.1,29.9
3.53333333333333,11.5569224833305,37.0250812313485,11.2148927177705,0.0887775478961697,4,12.0666666666667,29.9
3.56666666666667,11.5508404425082,37.4003394940303,11.3034944329336,0.088601715163092,4,12.0333333333333,29.9
3.6,11.5446433065946,37.7785398635306,11.391403712497,0.0879092795634389,4,12,29.9
3.63333333333333,11.5383303183248,38.1596473592105,11.4778627135155,0.0864590010184898,4,11.9666666666667,29.9
3.66666666666667,11.5319011952103,38.5435984374333,11.561950405046,0.0840876915304438,4,11.9333333333333,29.9
3.7,11.5253562608336,38.9302941623609,11.6423221564383,0.0803717513923488,4,11.9,29.9
