Time,x_ego,y_ego,velocity,acceleration,action,x_ped,y_ped
0,11.8,15.9,5,0,1,15.5,29.9
0.0333333333333333,11.7999963848124,16.0666178867547,5.24117769987379e-06,-4.9999947588223,3,15.5,29.9
0.0666666666666667,11.7999963848124,16.0666178867547,8.59787130035643e-06,3.35669360048264e-06,5,15.5,29.9
0.1,11.7999963842513,16.0668726372588,0.0166756891610298,0.0166670912897295,5,15.5,29.9
0.133333333333333,11.7999963819431,16.0678330340227,0.0422394801762486,0.0255637910152188,4,15.5,29.9
0.166666666666667,11.7999963741159,16.0697888020112,0.0759875422738914,0.0337480620976428,4,15.5,29.9
0.2,11.7999963507696,16.072917976616,0.112343587380811,0.0363560451069199,4,15.5,29.9
0.233333333333333,11.799996290667,16.0773088213585,0.151470891191832,0.039127303811021,4,15.5,29.9
0.266666666666667,11.7999961555564,16.0830336965626,0.192229529124449,0.0407586379326168,4,15.5,29.9
0.3,11.7999958842828,16.0901323642946,0.233787219834014,0.0415576907095651,4,15.5,29.9
0.333333333333333,11.7999953873024,16.0986212206961,0.275579604912968,0.0417923850789532,4,15.5,29.9
0.366666666666667,11.7999945422244,16.1085023611284,0.317287012493794,0.041707407580827,4,15.5,29.9
0.4,11.7999931906076,16.1197977849637,0.360408521056694,0.0431215085628994,4,15.5,29.9
0.433333333333333,11.7999911359746,16.1324943743347,0.401335424500206,0.040926903443512,4,15.5,29.9
0.466666666666667,11.7999881444855,16.1465457458896,0.441678530349497,0.0403431058492913,4,15.5,29.9
0.5,11.7999839488493,16.1619020773815,0.479617515669459,0.0379389853199616,4,15.5,29.9
0.533333333333333,11.7999782543832,16.1785402677881,0.518571985124932,0.0389544694554731,4,15.5,29.9
0.566666666666667,11.7999707457724,16.1964927359638,0.55845741738946,0.0398854322645279,4,15.5,29.9
0.6,11.7999610946101,16.2157613023989,0.597524245603972,0.0390668282145124,4,15.5,29.9
0.633333333333333,11.7999489689669,16.2363177217206,0.63571927197791,0.0381950263739379,4,15.5,29.9
0.666666666666667,11.7999340449268,16.2581325895035,0.673025904800657,0.0373066328227465,4,15.5,29.9
0.7,11.7999160192229,16.2811761894685,0.709445399094268,0.0364194942936112,4,15.5,29.9
0.733333333333333,11.7998946218275,16.3054195469803,0.745020760515312,0.0355753614210441,4,15.5,29.9
0.766666666666667,11.7998696277409,16.3308353378445,0.779800511427681,0.034779750912369,4,15.5,29.9
0.8,11.7998408672835,16.3573977152017,0.81382451213754,0.0340240007098589,4,15.5,29.9
0.833333333333333,11.7998082342164,16.3850820592103,0.84712619576927,0.0333016836317297,4,15.5,29.9
0.866666666666667,11.7997716911254,16.4138647894884,0.87973420573175,0.0326080099624805,4,15.5,29.9
0.9,11.7997312716332,16.4437232213221,0.911673358631967,0.0319391529002171,4,15.5,29.9
0.933333333333333,11.7996870791999,16.4746352089999,0.942942566271562,0.0312692076395948,4,15.5,29.9
0.966666666666667,11.7996392825765,16.5065778270251,0.973505636116731,0.0305630698451688,4,15.5,29.9
1,11.7995881077708,16.5395271435741,1.0033410364549,0.0298354003381676,4,15.5,29.9
1.03333333333333,11.7995338268001,16.5734587330263,1.03243965861612,0.0290986221612217,4,15.5,29.9
1.06666666666667,11.7994767438214,16.6083479985327,1.06080062294167,0.0283609643255485,4,15.5,29.9
1.1,11.7994171792722,16.6441704459603,1.08843087186873,0.0276302489270608,4,15.5,29.9
1.13333333333333,11.7993554528253,16.6809019076708,1.11534283819842,0.0269119663296948,4,15.5,29.9
1.16666666666667,11.7992918660842,16.7185186979966,1.14155341585567,0.0262105776572417,4,15.5,29.9
1.2,11.7992266859138,16.7569979305848,1.16709669905219,0.0255432831965201,4,15.5,29.9
1.23333333333333,11.7991601293081,16.7963181202265,1.19201777421877,0.0249210751665843,4,15.5,29.9
1.26666666666667,11.7990923510183,16.8364591833473,1.21635508749963,0.0243373132808642,4,15.5,29.9
1.3,11.7990234346555,16.8774022158871,1.24014112906255,0.0237860415629167,4,15.5,29.9
1.33333333333333,11.7989533878133,16.9191293184681,1.26340380909143,0.0232626800288804,4,15.5,29.9
1.36666666666667,11.7988821416143,16.9616234610852,1.28616748061193,0.0227636715204969,4,15.5,29.9
1.4,11.798809554808,17.004868377298,1.30845370073316,0.0222862201212315,4,15.5,29.9
1.43333333333333,11.7987354222404,17.0488484805204,1.33028179875306,0.0218280980199026,4,15.5,29.9
1.46666666666667,11.7986594872044,17.0935487969267,1.3516693022024,0.0213875034493387,4,15.5,29.9
1.5,11.7985814568884,17.1389548943749,1.37263003739127,0.0209607351888699,4,15.5,29.9
1.53333333333333,11.7985010200262,17.1850525922073,1.39316506555294,0.020535028161673,4,15.4916666666667,29.9
1.56666666666667,11.7984178654052,17.2318276923618,1.41327479735986,0.0201097318069203,4,15.4666666666667,29.9
1.6,11.7983316996919,17.2792660834432,1.43296378456494,0.0196889872050752,4,15.425,29.9
1.63333333333333,11.7982422634784,17.3273538556202,1.45223937597607,0.0192755914111353,4,15.3752276867031,29.9
1.66666666666667,11.7981493444058,17.3760773770139,1.47111075033966,0.0188713743635867,4,15.3259107468124,29.9
1.7,11.7980527864235,17.4254233425787,1.48958822271798,0.0184774723783232,4,15.2770491803279,29.9
1.73333333333333,11.7979524945763,17.4753788032964,1.50768275035211,0.0180945276341244,4,15.2286429872495,29.9
1.76666666666667,11.7978484350959,17.5259311813899,1.52540558361564,0.0177228332635346,2,15.1806921675774,29.9
1.8,11.7977406309795,17.5770682757145,1.54276802219969,0.0173624385840476,2,15.1331967213115,29.9
1.83333333333333,11.7976291536198,17.6287782603408,1.55978124740854,0.01701322520885,2,15.0861566484517,29.9
1.86666666666667,11.7975141113704,17.681049678514,1.57645620934902,0.0166749619404798,2,15.0395719489982,29.9
1.9,11.7973956361587,17.7338714263466,1.59280228739609,0.0163460780470719,2,14.9934426229508,29.9
1.93333333333333,11.7972738695623,17.7872325403253,1.60881747878507,0.0160151913889748,2,14.9477686703097,29.9
1.96666666666667,11.7971489494512,17.841121920053,1.62449841037162,0.0156809315865549,2,14.9025500910747,29.9
2,11.7970209978058,17.8955284329376,1.63984626290059,0.0153478525289712,2,14.8577868852459,29.9
2.03333333333333,11.796890110888,17.9504410410784,1.65486534229458,0.0150190793939891,2,14.8134790528233,29.9
2.06666666666667,11.7967563523812,18.0058488872961,1.66956204654864,0.01469670425406,2,14.7696265938069,29.9
2.1,11.7966197497297,18.0617413517957,1.68394412149419,0.0143820749455479,2,14.7262295081967,29.9
2.13333333333333,11.7964802936142,18.1181080877282,1.69802012805555,0.0140760065613545,2,14.6832877959927,29.9
2.16666666666667,11.7963379402468,18.1749390417033,1.7117990639528,0.0137789358972522,2,14.6408014571949,29.9
2.2,11.7961926159807,18.2322244636634,1.72529009786482,0.0134910339120189,2,14.5987704918033,29.9
2.23333333333333,11.7960442232569,18.2899551636644,1.73852901088247,0.0132389130176553,2,14.5571948998179,29.9
2.26666666666667,11.7958926452817,18.3481243227452,1.75161731576121,0.0130883048787405,2,14.5160746812386,29.9
2.3,11.7957377510726,18.4067290047349,1.76468416633984,0.0130668505786322,2,14.4754098360656,29.9
2.33333333333333,11.7955794009786,18.4657708505778,1.77787028996824,0.013186123628395,2,14.4352003642987,29.9
2.36666666666667,11.7954174523999,18.5252559183322,1.79129404206766,0.0134237520994198,2,14.3954462659381,29.9
2.4,11.7952517659553,18.5851934346923,1.80502492811179,0.0137308860441321,2,14.3561475409836,29.9
2.43333333333333,11.7950822111701,18.6455941228365,1.81908512190338,0.0140601937915914,2,14.3173041894353,29.9
2.46666666666667,11.7949086708206,18.7064687284771,1.83345293083667,0.014367808933291,2,14.2789162112933,29.9
2.5,11.7947310444748,18.7678264778233,1.84805883338417,0.0146059025474992,2,14.2409836065574,29.9
2.53333333333333,11.7945492513485,18.8296735040234,1.86278620977758,0.0147273763934068,2,14.2035063752277,29.9
2.56666666666667,11.7943632329892,18.8920110772648,1.87745773891905,0.014671529141467,2,14.1664845173042,29.9
2.6,11.7941729558266,18.9548337672062,1.89185782127014,0.0144000823510972,2,14.1299180327869,29.9
2.63333333333333,11.7939784110222,19.018129063751,1.90578406029146,0.0139262390213148,2,14.0938069216758,29.9
2.66666666666667,11.7937796120101,19.0818781765935,1.91905813003433,0.0132740697428746,2,14.0581511839709,29.9
2.7,11.7935765914635,19.1460570248935,1.93156020872437,0.0125020786900381,2,14.0229508196721,29.9
2.73333333333333,11.7933693938387,19.2106393481475,1.94326845387573,0.0117082451513617,2,13.9882058287796,29.9
2.76666666666667,11.7931580684286,19.2755992669199,1.95423138186749,0.010962927991756,2,13.9539162112933,29.9
2.8,11.7929426618708,19.340913828704,1.96457558650511,0.0103442046376223,2,13.9200819672131,29.9
2.83333333333333,11.7927232098199,19.4065656823506,1.97451162252232,0.00993603601721338,2,13.9200819672131,29.9
2.86666666666667,11.7924997279238,19.4725457975897,1.9843255289107,0.00981390638837487,2,13.9200819672131,29.9
2.9,11.7922722025133,19.5388560186088,1.99438872724959,0.0100631983388921,2,13.9200819672131,29.9
2.93333333333333,11.7920405789377,19.6055123498365,2.00518583128408,0.0107971040344865,2,13.9200819672131,29.9
2.96666666666667,11.7918047479219,19.6725486692336,2.01728557217174,0.0120997408876624,2,13.9200819672131,29.9
3,11.7915645341653,19.7400189362788,2.03134654793078,0.0140609757590386,2,13.9200819672131,29.9
3.03333333333333,11.7913196782659,19.8080016849953,2.04818392196212,0.0168373740313439,2,13.9200819672131,29.9
3.06666666666667,11.7910698167035,19.8766045563548,2.06870251981784,0.0205185978557214,4,13.9200819672131,29.9
3.1,11.7908144691315,19.9459650563156,2.09379458612875,0.0250920663109038,4,13.9200819672131,29.9
3.13333333333333,11.7905530254893,20.0162508677642,2.12436789739031,0.0305733112615654,4,13.9200819672131,29.9
3.16666666666667,11.7902847382053,20.0876578912929,2.16116355383428,0.036795656443966,4,13.9200819672131,29.9
3.2,11.7900087344446,20.1604007768607,2.20455253090281,0.0433889770685347,4,13.9200819672131,29.9
3.23333333333333,11.7897240375133,20.2347011858244,2.25461331912336,0.0500607882205446,4,13.9200819672131,29.9
3.26666666666667,11.7894295824034,20.3107801284888,2.31123032204877,0.0566170029254112,4,13.9200819672131,29.9
3.3,11.7891242339987,20.3888513859697,2.37408614857687,0.0628558265280956,4,13.9200819672131,29.9
3.33333333333333,11.7888068105176,20.469115236656,2.4426975478707,0.0686113992938369,4,13.9200819672131,29.9
3.36666666666667,11.7884761085937,20.5517537872452,2.51646189894017,0.0737643510694626,4,13.9200819672131,29.9
3.4,11.7881309339837,20.6369274436924,2.59469068825179,0.0782287893116238,4,13.9200819672131,29.9
3.43333333333333,11.787770151713,20.7247733780952,2.6766884665236,0.0819977782718064,4,13.9200819672131,29.9
3.46666666666667,11.7873927175778,20.8154059844178,2.76178701578085,0.085098549257256,4,13.9200819672131,29.9
3.5,11.7869976854307,20.9089180732856,2.84936174227079,0.0875747264899416,4,13.9200819672131,29.9
3.53333333333333,11.7865842060284,21.0053822478529,2.93881432824571,0.0894525859749162,4,13.9200819672131,29.9
3.56666666666667,11.7861515233812,21.1048512434133,3.02956515728724,0.0907508290415331,4,13.9200819672131,29.9
3.6,11.7856989620208,21.2073600085011,3.12113086604339,0.0915657087561454,4,13.9200819672131,29.9
3.63333333333333,11.7852259086877,21.312928957599,3.21312007663035,0.091989210586962,4,13.9200819672131,29.9
3.66666666666667,11.7847317951616,21.4215667546771,3.30521674799321,0.0920966713628553,4,13.9200819672131,29.9
3.7,11.7842160835155,21.5332725821592,3.39716588934914,0.0919491413559355,4,13.9200819672131,29.9
3.73333333333333,11.7836782543824,21.6480379071842,3.48875604645241,0.0915901571032642,4,13.9200819672131,29.9
3.76666666666667,11.783117799522,21.7658474594173,3.57978745136433,0.0910314049119219,4,13.9200819672131,29.9
3.8,11.7825342234337,21.8866782024704,3.66996012654604,0.0901726751817131,4,13.9200819672131,29.9
3.83333333333333,11.7819270754693,22.010490882271,3.75851889656148,0.0885587700154367,4,13.9200819672131,29.9
3.86666666666667,11.781296032985,22.1372098317413,3.84407395186722,0.0855550553057385,4,13.9200819672131,29.9
3.9,11.7806409778551,22.2667072350458,3.9249450346577,0.0808710827904817,4,13.9200819672131,29.9
3.93333333333333,11.7799620476416,22.3987964945392,3.99923142376351,0.0742863891058163,4,13.9200819672131,29.9
3.96666666666667,11.7792597135283,22.5332210607611,4.06470234810018,0.0654709243366689,4,13.9200819672131,29.9
4,11.7785348361485,22.6696506804007,4.11916141303652,0.0544590649363332,4,13.9200819672131,29.9
4.03333333333333,11.7777887172777,22.80767987822,4.16043691713258,0.0412755040960615,4,13.9200819672131,29.9
4.06666666666667,11.7770229612593,22.9468700726627,4.18931411376802,0.0288771966354391,4,13.9200819672131,29.9
4.1,11.7762390053463,23.0868616095785,4.20903029652205,0.0197161827540349,4,13.9200819672131,29.9
4.13333333333333,11.7754380101035,23.2273946374569,4.22217286031144,0.0131425637893914,1,13.9200819672131,29.9
4.16666666666667,11.7746209430382,23.3682826374459,4.23059501435563,0.00842215404418578,1,13.9200819672131,29.9
4.2,11.7737886327873,23.5093916097542,4.23562374283715,0.00502872848152158,1,13.9200819672131,29.9
4.23333333333333,11.7729417963922,23.650625155304,4.23820883144801,0.00258508861086337,1,13.9200819672131,29.9
4.26666666666667,11.7720810503434,23.7919137813605,4.23902964757848,0.000820816130464586,1,13.9200819672131,29.9
4.3,11.7712069135409,23.933207233228,4.23857164459534,-0.000458002983134698,1,13.9200819672131,29.9
4.33333333333333,11.7703204050935,24.0743534580093,4.23024907803636,-0.00832256655898078,1,13.9200819672131,29.9
4.36666666666667,11.7694236910936,24.2149794988619,4.20739887135356,-0.022850206682806,3,13.9200819672131,29.9
4.4,11.7685195741837,24.3546042216397,4.1701974427152,-0.0372014286383546,3,13.9200819672131,29.9
4.43333333333333,11.7676100174792,24.4929244124663,4.12914739960087,-0.0410500431143337,3,13.9200819672131,29.9
4.46666666666667,11.766695813663,24.6298713158286,4.08781849649308,-0.0413289031077912,3,13.9200819672131,29.9
4.5,11.7657776426038,24.7654083951074,4.04457173440731,-0.0432467620857642,3,13.9200819672131,29.9
4.53333333333333,11.7648568747754,24.8993859449901,3.9942571508482,-0.0503145835591154,3,13.9200819672131,29.9
4.56666666666667,11.7639357670289,25.0315117407383,3.93347441217548,-0.0607827386727173,3,13.9200819672131,29.9
4.6,11.7630170053178,25.161437419323,3.86225614207335,-0.0712182701021336,3,13.9200819672131,29.9
4.63333333333333,11.7621033964352,25.2888155606859,3.7806267144443,-0.0816294276290508,3,13.9200819672131,29.9
4.66666666666667,11.7611982315806,25.4132416868702,3.68513853435637,-0.0954881800879206,3,13.9200819672131,29.9
4.7,11.760305489593,25.5342254013642,3.57408415222858,-0.111054382127791,3,13.9200819672131,29.9
4.73333333333333,11.7594300600021,25.6511615808774,3.44228745127312,-0.13179670095546,3,13.9200819672131,29.9
4.76666666666667,11.758576884036,25.7634741854887,3.29666954870252,-0.145617902570606,3,13.9200819672131,29.9
4.8,11.7577494927542,25.8708469055611,3.14589346723895,-0.150776081463568,3,13.9200819672131,29.9
4.83333333333333,11.7569504826279,25.9731366175497,2.99168774560887,-0.154205721630077,3,13.9200819672131,29.9
4.86666666666667,11.7561823659443,26.0702290823202,2.83405711406695,-0.15763063154192,3,13.9200819672131,29.9
4.9,11.7554476979909,26.1620101978418,2.67300508834616,-0.161052025720787,3,13.9200819672131,29.9
4.93333333333333,11.7547486356403,26.2484237345635,2.51200030596339,-0.161004782382774,3,13.9200819672131,29.9
4.96666666666667,11.7540870646178,26.3294426021212,2.34932207709225,-0.162678228871136,3,13.9200819672131,29.9
5,11.7534650975508,26.4049821255582,2.18325596298538,-0.166066114106877,3,13.9200819672131,29.9
5.03333333333333,11.7528843519141,26.4749971256503,2.0181257067576,-0.16513025622778,3,13.9200819672131,29.9
5.06666666666667,11.752345304009,26.5395743583521,1.85712879122144,-0.160996915536159,3,13.9200819672131,29.9
5.1,11.7518479810395,26.5988323571716,1.69899072173125,-0.158138069490186,3,13.9200819672131,29.9
5.13333333333333,11.7513921509539,26.6528969312616,1.54551420120264,-0.153476520528614,3,13.9200819672131,29.9
5.16666666666667,11.7509771930427,26.701923995612,1.39672166876037,-0.148792532442266,3,13.9200819672131,29.9
5.2,11.7506025443936,26.7460406999619,1.25087376813237,-0.145847900628,3,13.9200819672131,29.9
5.23333333333333,11.7502673278301,26.7854023131567,1.11138892430123,-0.139484843831136,3,13.9200819672131,29.9
5.26666666666667,11.7499705900894,26.8201626492748,0.974800242843624,-0.136588681457611,3,13.9200819672131,29.9
5.3,11.7497115003772,26.8504492743201,0.842977484686978,-0.131822758156646,3,13.9200819672131,29.9
5.33333333333333,11.7494889582416,26.8764208664903,0.715874836629845,-0.127102648057133,3,13.9200819672131,29.9
5.36666666666667,11.7493020673413,26.8982032296439,0.591617846755613,-0.124256989874232,3,13.9200819672131,29.9
5.4,11.7491501395632,26.9158904076608,0.470198638556818,-0.121419208198795,3,13.9200819672131,29.9
5.43333333333333,11.7490324681864,26.9295773583963,0.351645683474846,-0.118552955081973,3,13.9200819672131,29.9
5.46666666666667,11.7489483469083,26.9393582084286,0.235894552641634,-0.115751130833212,3,13.9200819672131,29.9
5.5,11.7488970899437,26.9453241636973,0.122947034782618,-0.112947517859017,3,13.9200819672131,29.9
5.53333333333333,11.7488780002207,26.9475684726217,0.0148612075479429,-0.108085827234675,3,13.9200819672131,29.9
5.56666666666667,11.7488877406796,26.946548169386,0.045554207145258,0.0306929995973151,4,13.9200819672131,29.9
5.6,11.7489057016821,26.9450514540148,0.00736515942352016,-0.0381890477217378,3,13.9200819672131,29.9
5.63333333333333,11.7489057016821,26.9450514540148,0.0072747629613507,-9.03964621694654e-05,5,13.9200819672131,29.9
5.66666666666667,11.7489057016821,26.9450514540148,0.00740448680068335,0.00012972383933265,5,13.9200819672131,29.9
5.7,11.7489057016821,26.9450514540148,0.00770821710915384,0.000303730308470493,5,13.9200819672131,29.9
5.73333333333333,11.7489057016821,26.9450514540148,0.00810281072962132,0.000394593620467482,5,13.9200819672131,29.9
5.76666666666667,11.7489057016821,26.9450514540148,0.00848630353812783,0.000383492808506506,5,13.9200819672131,29.9
5.8,11.7489057016821,26.9450514540148,0.00875464385428501,0.000268340316157184,5,13.9200819672131,29.9
5.83333333333333,11.7489057016821,26.9450514540148,0.00881571758280895,6.10737285239391e-05,5,13.9200819672131,29.9
5.86666666666667,11.7489057016821,26.9450514540148,0.00859987425159362,-0.000215843331215328,5,13.9200819672131,29.9
5.9,11.7489057016821,26.9450514540148,0.00806659020233184,-0.000533284049261781,5,13.9200819672131,29.9
5.93333333333333,11.7489057016821,26.9450514540148,0.00720728738254709,-0.000859302819784756,5,13.9200819672131,29.9
5.96666666666667,11.7489057016821,26.9450514540148,0.00604464233750496,-0.00116264504504212,5,13.9200819672131,29.9
6,11.7489057016821,26.9450514540148,0.00462895739983477,-0.00141568493767019,5,13.9200819672131,29.9
6.03333333333333,11.7489057016821,26.9450514540148,0.0030323199310183,-0.00159663746881647,5,13.9200819672131,29.9
6.06666666666667,11.7489057016821,26.9450514540148,0.00134134791212308,-0.00169097201889522,5,13.9200819672131,29.9
6.1,11.7489057016821,26.9450514540148,0.000350681047074855,-0.000990666865048227,5,13.9200819672131,29.9
6.13333333333333,11.7489057016821,26.9450514540148,0.00195158324365764,0.00160090219658279,5,13.9200819672131,29.9
6.16666666666667,11.7489057016821,26.9450514540148,0.00337728129647079,0.00142569805281315,5,13.9200819672131,29.9
6.2,11.7489057016821,26.9450514540148,0.00455759388243943,0.00118031258596864,5,13.9200819672131,29.9
6.23333333333333,11.7489057016821,26.9450514540148,0.00544047963604279,0.000882885753603362,5,13.9200819672131,29.9
6.26666666666667,11.7489057016821,26.9450514540148,0.00599457253750137,0.000554092901458579,5,13.9200819672131,29.9
6.3,11.7489057016821,26.9450514540148,0.00620999652519567,0.000215423987694301,5,13.9200819672131,29.9
6.33333333333333,11.7489057016821,26.9450514540148,0.006097577836151,-0.000112418689044669,5,13.9200819672131,29.9
