Time,x_ego,y_ego,velocity,acceleration,action,x_ped,y_ped
0,11.8,8.9,7,0,1,15.5,29.9
0.0333333333333333,11.7999950604608,9.13327037938529,6.99615579158591,-0.00384420841408595,1,15.5,29.9
0.0666666666666667,11.7999641537382,9.36640659845764,6.99196960422518,-0.00418618736073029,1,15.5,29.9
0.1,11.7998905520409,9.59940075209606,6.98769544184844,-0.00427416237673928,1,15.5,29.9
0.133333333333333,11.7997655810579,9.83225377113676,6.98349860736444,-0.00419683448399955,1,15.5,29.9
0.166666666666667,11.7995862156853,10.0649678376877,6.97935738040605,-0.00414122695839758,1,15.5,29.9
0.2,11.7993529256513,10.2975445186978,6.97525616170541,-0.00410121870063485,1,15.5,29.9
0.233333333333333,11.7990680251544,10.5299849414976,6.97118378101847,-0.00407238068694493,1,15.5,29.9
0.266666666666667,11.7987345810106,10.762289919801,6.96713225990889,-0.00405152110958085,1,15.5,29.9
0.3,11.7983558004211,10.9944600437594,6.9630959060409,-0.00403635386799106,1,15.5,29.9
0.333333333333333,11.7979347550068,11.2264957441096,6.95907065623609,-0.00402524980480745,1,15.5,29.9
0.366666666666667,11.7974742907425,11.4583973377913,6.95505360589538,-0.00401705034070599,1,15.5,29.9
0.4,11.7969770045123,11.6901650603639,6.95104267526378,-0.00401093063160474,1,15.5,29.9
0.433333333333333,11.7964452160971,11.9217990890234,6.94703637379668,-0.00400630146710057,1,15.5,29.9
0.466666666666667,11.7958809116185,12.1532995589215,6.94303363351999,-0.00400274027668424,1,15.5,29.9
0.5,11.7952856690011,12.3846665747237,6.93903369038362,-0.00399994313637198,1,15.5,29.9
0.533333333333333,11.7946605929875,12.6159002188081,6.93503599896081,-0.00399769142281325,1,15.5,29.9
0.566666666666667,11.7940062876953,12.8470005571267,6.93104017055675,-0.00399582840405621,1,15.5,29.9
0.6,11.793322883637,13.0779676434614,6.92704592810186,-0.0039942424548931,1,15.5,29.9
0.633333333333333,11.7926101201252,13.3088015225876,6.92305307338305,-0.00399285471880528,1,15.5,29.9
0.666666666666667,11.7918674691378,13.5395022326914,6.91906146350104,-0.00399160988200986,1,15.5,29.9
0.7,11.7910942772438,13.7700698072558,6.91507099423851,-0.00399046926253188,1,15.5,29.9
0.733333333333333,11.790289899824,14.0005042765421,6.91108158854202,-0.00398940569649131,1,15.5,29.9
0.766666666666667,11.7894538060346,14.230805668735,6.90709318871157,-0.00398839983044841,1,15.5,29.9
0.8,11.7885856415947,14.4609740107853,6.9031057512092,-0.00398743750237252,1,15.5,29.9
0.833333333333333,11.7876852467037,14.6910093289842,6.89911924324695,-0.00398650796224853,1,15.5,29.9
0.866666666666667,11.7867526355242,14.9209116493028,6.89513364050523,-0.00398560274171711,1,15.5,29.9
0.9,11.7857879498232,15.1506809975467,6.89114892549128,-0.00398471501395292,1,15.5,29.9
0.933333333333333,11.7847914017202,15.3803173993835,6.88716508620033,-0.00398383929095214,1,15.5,29.9
0.966666666666667,11.7837632192827,15.6098208803015,6.88318211489335,-0.00398297130697589,1,15.5,29.9
1,11.7827036049135,15.8391914655502,6.87920000693704,-0.00398210795630849,1,15.5,29.9
1.03333333333333,11.7816127114646,16.0684291801003,6.87521875974062,-0.00398124719641935,1,15.5,29.9
1.06666666666667,11.7804906361299,16.2975340486412,6.87123837185913,-0.00398038788149879,1,15.5,29.9
1.1,11.7793374284337,16.5265060956182,6.86725884232134,-0.00397952953778447,1,15.5,29.9
1.13333333333333,11.7781531065939,16.7553453453005,6.86328017020375,-0.00397867211758651,1,15.5,29.9
1.16666666666667,11.776937676234,16.9840518218608,6.85930235443033,-0.00397781577342915,1,15.5,29.9
1.2,11.7756911465081,17.2126255494502,6.85532539374739,-0.00397696068293207,1,15.5,29.9
1.23333333333333,11.7744135406009,17.4410665522525,6.85134928680805,-0.00397610693934247,1,15.5,29.9
1.26666666666667,11.7731048996617,17.6693748545129,6.84737403230093,-0.00397525450712521,1,15.5,29.9
1.3,11.7717652810041,17.8975504805391,6.8433996290702,-0.00397440323073006,1,15.5,29.9
1.33333333333333,11.770394752531,18.1255934546831,6.83942607619232,-0.00397355287787438,1,15.5,29.9
1.36666666666667,11.7689933857374,18.3535038013111,6.83545337299569,-0.00397270319662724,1,15.5,29.9
1.4,11.7675612493872,18.5812815447745,6.83148151902762,-0.00397185396807842,1,15.5,29.9
1.43333333333333,11.7660984052753,18.8089267093871,6.82751051398567,-0.0039710050419437,1,15.5,29.9
1.46666666666667,11.7646049066404,19.0364393194156,6.82354035763588,-0.00397015634979248,1,15.5,29.9
1.5,11.763080799015,19.2638193990813,6.81957104973851,-0.00396930789737304,1,15.5,29.9
1.53333333333333,11.7615261227649,19.4910669725733,6.81560258999616,-0.00396845974234505,1,15.5,29.9
1.56666666666667,11.7599409163333,19.7181820640658,6.81163497803035,-0.0039676119658143,1,15.5,29.9
1.6,11.7583252192625,19.9451646977358,6.80766821338476,-0.00396676464558787,1,15.5,29.9
1.63333333333333,11.7566790743266,20.1720148977774,6.80370229554788,-0.00396591783687494,1,15.5,29.9
1.66666666666667,11.7550025284688,20.3987326884084,6.79973722398486,-0.00396507156302661,1,15.5,29.9
1.7,11.7532956325836,20.6253180938711,6.79577299816876,-0.00396422581609901,1,15.5,29.9
1.73333333333333,11.7515584404481,20.8517711384262,6.79180961760389,-0.00396338056487,1,15.5,29.9
1.76666666666667,11.7497910072327,21.0780918463442,6.78784708183729,-0.00396253576660133,1,15.5,29.9
1.8,11.7479933880254,21.3042802418958,6.78388539045823,-0.00396169137905744,1,15.5,29.9
1.83333333333333,11.7461656367022,21.5303363493436,6.77992454308841,-0.00396084736981805,1,15.5,29.9
1.86666666666667,11.7443078053216,21.7562601929379,6.77596453936706,-0.00396000372135585,1,15.5,29.9
1.9,11.7424199440611,21.9820517969149,6.77200537893547,-0.00395916043158362,1,15.5,29.9
1.93333333333333,11.7405021015869,22.2077111854994,6.76804706142468,-0.00395831751079623,1,15.5,29.9
1.96666666666667,11.7385543256703,22.4332383829084,6.76408958644821,-0.00395747497647037,1,15.5,29.9
2,11.7365766638556,22.6586334133562,6.7601329536006,-0.00395663284761039,1,15.5,29.9
2.03333333333333,11.7345691640134,22.8838963010585,6.75617716246055,-0.00395579114004452,1,15.5,29.9
2.06666666666667,11.7325318746804,23.1090270702353,6.75222221259708,-0.00395494986347167,1,15.5,29.9
2.1,11.730464845158,23.3340257451118,6.74826810357645,-0.0039541090206292,1,15.5,29.9
2.13333333333333,11.7283681254034,23.5588923499181,6.74431483496826,-0.00395326860819001,1,15.5,29.9
2.16666666666667,11.7262417657876,23.783626908887,6.7403624063494,-0.00395242861885947,1,15.5,29.9
2.2,11.7240858168072,24.0082294462521,6.73641081730551,-0.00395158904388726,1,15.5,29.9
2.23333333333333,11.721900328828,24.2326999862455,6.73246006743017,-0.00395074987534194,1,15.5,29.9
2.26666666666667,11.7196853519118,24.4570385530959,6.7285101563225,-0.00394991110767595,1,15.5,29.9
2.3,11.7174409357478,24.6812451710286,6.72456108358411,-0.00394907273838463,1,15.5,29.9
2.33333333333333,11.7151671296795,24.9053198642649,6.7206128488163,-0.00394823476781347,1,15.5,29.9
2.36666666666667,11.7128639827998,25.1292626570233,6.71666545161792,-0.00394739719837833,1,15.5,29.9
2.4,11.710531544074,25.3530735735204,6.71271889158446,-0.00394656003345784,1,15.5,29.9
2.43333333333333,11.7081698624587,25.5767526379718,6.7087731683081,-0.00394572327635956,1,15.5,29.9
2.46666666666667,11.7057789869867,25.8002998745933,6.70482828137859,-0.00394488692951001,1,15.5,29.9
2.5,11.7033589668083,26.0237153076012,6.70088423038455,-0.00394405099404604,1,15.5,29.9
2.53333333333333,11.7009098511881,26.246998961212,6.69694101491474,-0.00394321546980425,1,15.5,29.9
2.56666666666667,11.6984316894687,26.4701508596425,6.69299863455915,-0.00394238035559269,1,15.5,29.9
2.6,11.6959245310171,26.6931710271091,6.68905708890949,-0.00394154564965721,1,15.5,29.9
2.63333333333333,11.6933884251708,26.9160594878272,6.68511637755934,-0.00394071135015306,1,15.5,29.9
2.66666666666667,11.6908234211953,27.1388162660109,6.6811765001038,-0.00393987745554103,1,15.5,29.9
2.7,11.6882295682611,27.3614413858725,6.67723745613898,-0.00393904396481481,1,15.5,29.9
2.73333333333333,11.6856069154407,27.5839348716229,6.67329924526142,-0.00393821087755875,1,15.5,29.9
2.76666666666667,11.6829555117218,27.806296747471,6.66936186706757,-0.00393737819385365,1,15.5,29.9
2.8,11.68027540603,28.0285270376246,6.66542532115348,-0.00393654591408943,1,15.5,29.9
2.83333333333333,11.6775666472533,28.2506257662904,6.66148960711473,-0.00393571403875104,1,15.5,29.9
2.86666666666667,11.6748292842627,28.4725929576739,6.65755472454649,-0.00393488256823638,1,15.5,29.9
2.9,11.672063365925,28.6944286359801,6.65362067304377,-0.00393405150272752,1,15.5,29.9
2.93333333333333,11.6692689411058,28.9161328254132,6.64968745220162,-0.00393322084214365,1,15.5,29.9
2.96666666666667,11.6664460586656,29.1377055501766,6.64575506161545,-0.00393239058617567,1,15.5,29.9
3,11.6635947674505,29.3591468344728,6.6418235008811,-0.00393156073434486,1,15.5,29.9
3.03333333333333,11.6607151162806,29.5804567025034,6.63789276959498,-0.00393073128611654,1,15.5,29.9
3.06666666666667,11.6578071539409,29.8016351784687,6.63396286735402,-0.00392990224096312,1,15.5,29.9
3.1,11.6548709291743,30.0226822865678,6.63003379375558,-0.00392907359844585,1,15.5,29.9
3.13333333333333,11.6519064906793,30.2435980509985,6.62610554839733,-0.00392824535824143,1,15.5,29.9
3.16666666666667,11.6489138871112,30.4643824959575,6.6221781308772,-0.00392741752012959,1,15.5,29.9
3.2,11.6458931670855,30.6850356456401,6.61825154079323,-0.00392659008397622,1,15.5,29.9
3.23333333333333,11.6428443791831,30.9055575242403,6.61432577774355,-0.00392576304968362,1,15.5,29.9
3.26666666666667,11.6397675719549,31.1259481559512,6.61040084132639,-0.00392493641715763,1,15.5,29.9
3.3,11.6366627939249,31.3462075649647,6.60647673114011,-0.00392411018627303,1,15.5,29.9
3.33333333333333,11.6335300935921,31.5663357754715,6.60255344678326,-0.00392328435685663,1,15.5,29.9
3.36666666666667,11.6303695194298,31.7863328116613,6.59863098785457,-0.00392245892868726,1,15.5,29.9
3.4,11.6271811198848,32.0061986977227,6.59470935395307,-0.00392163390150202,1,15.5,29.9
3.43333333333333,11.6239649433748,32.225933457843,6.59078854467805,-0.00392080927501937,1,15.5,29.9
3.46666666666667,11.6207210382865,32.4455371162083,6.5868685596291,-0.00391998504894708,1,15.5,29.9
3.5,11.6174494529739,32.6650096970037,6.58294939840609,-0.0039191612230125,1,15.5,29.9
3.53333333333333,11.6141502357573,32.8843512244127,6.57903106060913,-0.00391833779695627,1,15.5,29.9
3.56666666666667,11.6108234349235,33.1035617226178,6.57511354583859,-0.00391751477054125,1,15.5,29.9
3.6,11.6074690987259,33.3226412158001,6.57119685369504,-0.00391669214355428,1,15.5,29.9
3.63333333333333,11.604087275386,33.5415897281394,6.56728098377924,-0.00391586991579285,1,15.5,29.9
3.66666666666667,11.6006780130938,33.7604072838144,6.56336593569219,-0.00391504808705356,1,15.5,29.9
3.7,11.5972413600089,33.9790939070024,6.55945170903505,-0.00391422665713925,1,15.5,29.9
3.73333333333333,11.5937773642611,34.1976496218794,6.55553830340922,-0.0039134056258332,1,15.5,29.9
3.76666666666667,11.5902860739501,34.4160744526202,6.5516257184163,-0.00391258499291869,1,15.5,29.9
3.8,11.5867675371458,34.6343684233984,6.54771395365813,-0.00391176475816746,1,15.5,29.9
3.83333333333333,11.5832218018877,34.8525315583862,6.54380300873679,-0.00391094492134147,1,15.5,29.9
3.86666666666667,11.5796489161844,35.0705638817545,6.53989288325459,-0.00391012548220626,1,15.5,29.9
3.9,11.5760489280134,35.2884654176729,6.53598357681406,-0.00390930644052379,1,15.5,29.9
3.93333333333333,11.5724218853204,35.5062361903097,6.532075089018,-0.00390848779606223,1,15.5,29.9
3.96666666666667,11.56876783602,35.7238762238317,6.52816741946941,-0.00390766954859156,1,15.5,29.9
4,11.5650868279949,35.9413855424044,6.52426056777152,-0.00390685169789062,1,15.5,29.9
4.03333333333333,11.5613789090969,36.1587641701922,6.52035453352778,-0.0039060342437347,1,15.5,29.9
4.06666666666667,11.5576441271461,36.3760121313578,6.51644931634188,-0.0039052171859062,1,15.5,29.9
4.1,11.5538825299322,36.5931294500625,6.51254491581769,-0.00390440052418928,1,15.5,29.9
4.13333333333333,11.5500941652137,36.8101161504666,6.50864133155932,-0.0039035842583619,1,15.5,29.9
4.16666666666667,11.5462790807185,37.0269722567287,6.50473856317113,-0.0039027683881967,1,15.5,29.9
4.2,11.5424373241439,37.243697793006,6.50083661025765,-0.0039019529134805,1,15.5,29.9
4.23333333333333,11.538568943156,37.4602927834544,6.49693547242367,-0.00390113783397705,1,15.5,29.9
4.26666666666667,11.5346739853903,37.6767572522284,6.4930351492742,-0.00390032314946698,1,15.5,29.9
4.3,11.5307524984512,37.893091223481,6.48913564041448,-0.00389950885972556,1,15.5,29.9
4.33333333333333,11.5268045299121,38.1092947213637,6.48523694544996,-0.00389869496452189,1,15.5,29.9
4.36666666666667,11.5228301273153,38.3253677700267,6.48133906398632,-0.00389788146363923,1,15.5,29.9
4.4,11.5188293381719,38.5413103936187,6.47744199562947,-0.00389706835684933,1,15.5,29.9
4.43333333333333,11.5148022099622,38.7571226162869,6.47354573998554,-0.00389625564393015,1,15.5,29.9
4.46666666666667,11.5107487901352,38.972804462177,6.46965029666087,-0.00389544332466318,1,15.5,29.9
4.5,11.5066691261092,39.1883559554333,6.46575566526205,-0.00389463139882551,1,15.5,29.9
4.53333333333333,11.5025632652713,39.4037771201986,6.46186184539585,-0.00389381986619508,1,15.5,29.9
