Time,x_ego,y_ego,velocity,acceleration,action,x_ped,y_ped
0,11.8,8.9,5,0,1,15.5,29.9
0.0333333333333333,11.7999963849159,9.06660768883747,4.99642262383768,-0.00357737616232345,1,15.4502170138889,29.9
0.0666666666666667,11.7999731931147,9.23309265291487,4.99264768180993,-0.00377494202774908,1,15.4008680555556,29.9
0.1,11.799916633104,9.39944929503992,4.98873172454986,-0.00391595726007044,1,15.351953125,29.9
0.133333333333333,11.7998187588898,9.56567361580513,4.98471522676415,-0.00401649778570246,1,15.3034722222222,29.9
0.166666666666667,11.7996764593977,9.73176275995304,4.98062710743408,-0.00408811933007236,1,15.2554253472222,29.9
0.2,11.7994902181123,9.89771469230113,4.97648802629002,-0.00413908114406425,1,15.2078125,29.9
0.233333333333333,11.7992629022974,10.0635279664076,4.97231276513208,-0.00417526115793354,1,15.1606336805556,29.9
0.266666666666667,11.7989987367914,10.2292015592328,4.96811192693604,-0.00420083819604322,1,15.1138888888889,29.9
0.3,11.7987025219883,10.3947347526023,4.96389313678642,-0.00421879014962556,1,15.067578125,29.9
0.333333333333333,11.7983790857285,10.5601270478827,4.95966188828662,-0.00423124849979217,1,15.0217013888889,29.9
0.366666666666667,11.7980329207334,10.7253781043321,4.95542214251403,-0.00423974577259845,1,14.9762586805556,29.9
0.4,11.7976679501918,10.8904876944443,4.95117675526774,-0.00424538724628842,1,14.93125,29.9
0.433333333333333,11.7972873754047,11.0554556715765,4.94692778420367,-0.00424897106407052,1,14.8866753472222,29.9
0.466666666666667,11.7968935799033,11.2202819465084,4.94267671060444,-0.00425107359923071,1,14.8425347222222,29.9
0.5,11.7964880840536,11.3849664705289,4.93842459960157,-0.00425211100286038,1,14.798828125,29.9
0.533333333333333,11.7960715560574,11.5495092233064,4.93417221574754,-0.00425238385403137,1,14.7555555555556,29.9
0.566666666666667,11.7956438869505,11.7139102042761,4.92992010628076,-0.00425210946678245,1,14.7127170138889,29.9
0.6,11.7952043300707,11.8781694266109,4.92566866116449,-0.00425144511626829,1,14.6703125,29.9
0.633333333333333,11.7947516935742,12.0422869130831,4.92141815648432,-0.00425050468017396,1,14.6283420138889,29.9
0.666666666666667,11.7942845628271,12.2062626932964,4.91716878589155,-0.00424937059277219,1,14.5868055555556,29.9
0.7,11.7938015221214,12.3700968018838,4.91292068343597,-0.00424810245557605,1,14.545703125,29.9
0.733333333333333,11.7933013445566,12.5337892773584,4.90867394024661,-0.00424674318935736,1,14.5050347222222,29.9
0.766666666666667,11.7927831252552,12.6973401613691,4.90442861691291,-0.00424532333370742,1,14.4648003472222,29.9
0.8,11.7922463445351,12.8607494981745,4.90018475290683,-0.00424386400607979,1,14.425,29.9
0.833333333333333,11.791690861231,13.0240173342074,4.89594237388592,-0.00424237902090141,1,14.3856336805556,29.9
0.866666666666667,11.7911168487361,13.1871437176559,4.89170149727516,-0.00424087661076822,1,14.3467013888889,29.9
0.9,11.7905246948757,13.3501286980372,4.88746213624767,-0.00423936102748446,1,14.308203125,29.9
0.933333333333333,11.7899148899635,13.5129723257751,4.88322430216891,-0.00423783407876144,1,14.2701388888889,29.9
0.966666666666667,11.7892879253029,13.6756746518121,4.87898800568719,-0.00423629648172064,1,14.2325086805556,29.9
1,11.7886442181711,13.8382357272905,4.87475325682377,-0.0042347488634169,1,14.1953125,29.9
1.03333333333333,11.7879840709317,14.0006556033264,4.87052006451449,-0.00423319230928421,1,14.1585503472222,29.9
1.06666666666667,11.7873076635284,14.1629343308858,4.86628843602957,-0.00423162848492087,1,14.1222222222222,29.9
1.1,11.7866150720211,14.3250719607526,4.86205837657205,-0.00423005945751509,1,14.086328125,29.9
1.13333333333333,11.7859063021609,14.4870685435627,4.85782988919295,-0.0042284873790992,1,14.0508680555556,29.9
1.16666666666667,11.7851813264906,14.6489241298739,4.85360297502268,-0.0042269141702711,1,14.0158420138889,29.9
1.2,11.7844401156063,14.8106387702381,4.84937763373087,-0.00422534129181251,1,13.98125,29.9
1.23333333333333,11.7836826579907,14.9722125152531,4.84515386408999,-0.00422376964088489,1,13.9470920138889,29.9
1.26666666666667,11.7829089670161,15.1336454155819,4.84093166451897,-0.00422219957101522,1,13.9133680555556,29.9
1.3,11.7821190772638,15.2949375219386,4.83671103350891,-0.00422063101006476,1,13.9133680555556,29.9
1.33333333333333,11.7813130344883,15.4560888850537,4.83249196987411,-0.00421906363479874,1,13.9133680555556,29.9
1.36666666666667,11.7804908841499,15.6170995556312,4.82827447281981,-0.00421749705429608,1,13.9133680555556,29.9
1.4,11.779652662627,15.7779695843146,4.82405854186075,-0.00421593095906392,1,13.9133680555556,29.9
1.43333333333333,11.7787983935076,15.9386990216714,4.81984417665301,-0.00421436520774066,1,13.9133680555556,29.9
1.46666666666667,11.7779280893615,16.0992879181994,4.81563137680924,-0.00421279984376621,1,13.9133680555556,29.9
1.5,11.7770417576971,16.2597363243514,4.81142014175563,-0.00421123505360832,1,13.9133680555556,29.9
1.53333333333333,11.7761394087788,16.4200442905703,4.80721047066498,-0.00420967109064829,1,13.9133680555556,29.9
1.56666666666667,11.77522106278,16.5802118673234,4.80300236247267,-0.00420810819231132,1,13.9133680555556,29.9
1.6,11.7742867542713,16.7402391051263,4.79879581595852,-0.00420654651415209,1,13.9133680555556,29.9
1.63333333333333,11.773336533026,16.9001260545502,4.79459082986291,-0.00420498609560838,1,13.9133680555556,29.9
1.66666666666667,11.7723704612372,17.0598727662126,4.79038740300129,-0.00420342686162201,1,13.9133680555556,29.9
1.7,11.7713886081687,17.2194792907525,4.78618553434691,-0.00420186865437522,1,13.9133680555556,29.9
1.73333333333333,11.7703910437887,17.3789456787998,4.78198522306431,-0.00420031128260145,1,13.9133680555556,29.9
1.76666666666667,11.7693778349199,17.5382716176278,4.77776466960785,-0.00422055345646122,1,13.9133680555556,29.9
1.8,11.7683491942531,17.6974280924957,4.77182356381761,-0.00594110579024054,1,13.9133680555556,29.9
1.83333333333333,11.7673053292903,17.8563864571815,4.76588428251852,-0.00593928129908594,1,13.9133680555556,29.9
1.86666666666667,11.7662462911272,18.0151467729894,4.75994693162435,-0.00593735089417891,1,13.9133680555556,29.9
1.9,11.7651722947751,18.1736800389285,4.75226767578588,-0.00767925583846374,1,13.9133680555556,29.9
1.93333333333333,11.764083563026,18.3319572614139,4.74459074679706,-0.00767692898882633,1,13.9133680555556,29.9
1.96666666666667,11.7629801636606,18.4899785192976,4.73691628954884,-0.00767445724821769,1,13.9133680555556,29.9
2,11.7618621735518,18.6477438956002,4.72924440721293,-0.00767188233591121,1,13.9133680555556,29.9
2.03333333333333,11.7607298530908,18.8052247744235,4.71985306068894,-0.00939134652398987,1,13.9133680555556,29.9
2.06666666666667,11.7595834754125,18.962392547178,4.71046467722033,-0.00938838346860216,1,13.9133680555556,29.9
2.1,11.7584231484833,19.119247314213,4.70107939856225,-0.00938527865808858,1,13.9133680555556,29.9
2.13333333333333,11.7572489843528,19.2757891799479,4.69169732538489,-0.00938207317735795,1,13.9133680555556,29.9
2.16666666666667,11.7560610951373,19.4320182516846,4.68231852897339,-0.00937879641150019,1,13.9133680555556,29.9
2.2,11.7548595898823,19.5879346387533,4.67294305967017,-0.00937546930321798,1,13.9133680555556,29.9
2.23333333333333,11.7536445726499,19.7435384519008,4.66357095295427,-0.00937210671590183,1,13.9133680555556,29.9
2.26666666666667,11.7524161418887,19.8988298028562,4.65420223378614,-0.00936871916812443,1,13.9133680555556,29.9
2.3,11.7511743908966,20.0538088040248,4.64483691967068,-0.00936531411546682,1,13.9133680555556,29.9
2.33333333333333,11.7499194090168,20.2084755682744,4.63547502277754,-0.00936189689313949,1,13.9133680555556,29.9
2.36666666666667,11.7486512831483,20.3628302087867,4.62611655138376,-0.00935847139378065,1,13.9133680555556,29.9
2.4,11.747370099187,20.5168728389536,4.61676151084935,-0.00935504053440361,1,13.9133680555556,29.9
2.43333333333333,11.746075943125,20.6706035723034,4.60740990429146,-0.00935160655788891,1,13.9133680555556,29.9
2.46666666666667,11.7447691150913,20.8239938207821,4.59633961909413,-0.0110702851973299,1,13.9133680555556,29.9
2.5,11.7434499230779,20.9770150014963,4.58527302868324,-0.0110665904108904,1,13.9133680555556,29.9
2.53333333333333,11.7421184700836,21.1296672387315,4.57421023700176,-0.0110627916814821,1,13.9133680555556,29.9
2.56666666666667,11.7407755359112,21.2818638283455,4.55794137604839,-0.0162688609533745,1,13.9133680555556,29.9
2.6,11.7394221497105,21.4334893821671,4.53995510587791,-0.0179862701704776,1,13.9133680555556,29.9
2.63333333333333,11.7380589287062,21.5844866650878,4.52025203863025,-0.0197030672476641,3,13.9133680555556,29.9
2.66666666666667,11.7366867587033,21.734769397911,4.49708887616281,-0.0231631624674336,3,13.9133680555556,29.9
2.7,11.7353063338395,21.8842800289236,4.47393252673219,-0.0231563494306188,3,13.9133680555556,29.9
2.73333333333333,11.7339179125995,22.0330187941015,4.45078345926742,-0.0231490674647725,3,13.9133680555556,29.9
2.76666666666667,11.7325217688635,22.1809859427611,4.42764200601935,-0.0231414532480709,3,13.9133680555556,29.9
2.8,11.7311184247957,22.3281530321935,4.40278628370173,-0.0248557223176169,3,13.9133680555556,29.9
2.83333333333333,11.7297081630805,22.4745203327754,4.37966094010049,-0.023125343601242,3,13.9133680555556,29.9
2.86666666666667,11.7282912647161,22.6200881199658,4.35482170077239,-0.0248392393281058,3,13.9133680555556,29.9
2.9,11.7268679964913,22.7648566748944,4.33171309526562,-0.0231086055067653,3,13.9133680555556,29.9
2.93333333333333,11.7254386153132,22.9088262804352,4.30689076751361,-0.0248223277520072,3,13.9133680555556,29.9
2.96666666666667,11.7240036156173,23.0519685213636,4.2820770756027,-0.0248136919109152,3,13.9133680555556,29.9
3,11.7225637502979,23.194225922813,4.25380608171506,-0.0282709938876371,3,13.9133680555556,29.9
3.03333333333333,11.72112108981,23.3353967891882,4.21689020832873,-0.0369158733863335,3,13.9133680555556,29.9
3.06666666666667,11.7196782867234,23.4752220596309,4.17307488750722,-0.0438153208215066,3,13.9133680555556,29.9
3.1,11.7182375562671,23.613500493145,4.12408393796267,-0.0489909495445549,3,13.9133680555556,29.9
3.13333333333333,11.7168009475109,23.7500596063272,4.0699190156106,-0.0541649223520686,3,13.9133680555556,29.9
3.16666666666667,11.7153706111473,23.8847269726212,4.01058181743509,-0.0593371981755082,3,13.9133680555556,29.9
3.2,11.7139490777773,24.0173011588416,3.94433014807985,-0.0662516693552426,3,13.9133680555556,29.9
3.23333333333333,11.7125389824059,24.1475807950847,3.87290991545275,-0.0714202326270983,3,13.9133680555556,29.9
3.26666666666667,11.711143059376,24.2753649387627,3.79460084771051,-0.0783090677422349,3,13.9133680555556,29.9
3.3,11.7097644203153,24.4004236489816,3.70938320086723,-0.0852176468432817,3,13.9133680555556,29.9
3.33333333333333,11.7084065573728,24.5224979905946,3.61553697416603,-0.0938462267011966,3,13.9133680555556,29.9
3.36666666666667,11.7070733382722,24.641300767163,3.51308636067039,-0.102450613495642,3,13.9133680555556,29.9
3.4,11.7057687284603,24.7565448647648,3.40201206191163,-0.111074298758763,3,13.9133680555556,29.9
3.43333333333333,11.7044965013104,24.8679715929003,3.28403876384409,-0.117973298067539,3,13.9133680555556,29.9
3.46666666666667,11.7032622905163,24.975149410526,3.1470703486988,-0.136968415145288,3,13.9133680555556,29.9
3.5,11.7020730334432,25.077532080821,2.99632068357203,-0.150749665126773,3,13.9133680555556,29.9
3.53333333333333,11.7009358435969,25.1745734943698,2.82658361644327,-0.169737067128756,3,13.9133680555556,29.9
3.56666666666667,11.6998574195808,25.2657850854993,2.64651799785663,-0.18006561858664,3,13.9133680555556,29.9
3.6,11.69884282939,25.3508513596167,2.45784978310268,-0.188668214753956,3,13.9133680555556,29.9
3.63333333333333,11.6978963505404,25.4295434072073,2.26404831282079,-0.193801470281888,3,13.9133680555556,29.9
3.66666666666667,11.6970219280552,25.5016636338682,2.06370480687448,-0.200343505946304,3,13.9133680555556,29.9
3.7,11.6962233253671,25.5670218176627,1.85858919415112,-0.205115612723368,3,13.9133680555556,29.9
3.73333333333333,11.6955029983144,25.625535763479,1.6531037102174,-0.205485483933716,3,13.9133680555556,29.9
3.76666666666667,11.6948627146912,25.6771700223411,1.44582241923193,-0.207281290985468,3,13.9133680555556,29.9
3.8,11.6943033310711,25.7219544426681,1.2421123467958,-0.203710072436131,3,13.9133680555556,29.9
3.83333333333333,11.6938245072657,25.76000996088,1.04207670263517,-0.200035644160631,3,13.9133680555556,29.9
3.86666666666667,11.693425650925,25.7914618644943,0.845917521038626,-0.196159181596544,3,13.9133680555556,29.9
3.9,11.6931058975063,25.8164432247901,0.653803808480747,-0.192113712557879,3,13.9133680555556,29.9
3.93333333333333,11.6928642065567,25.8350881666553,0.465707428917308,-0.188096379563439,3,13.9133680555556,29.9
3.96666666666667,11.6926993805076,25.8475324660025,0.28173200573234,-0.183975423184968,3,13.9133680555556,29.9
4,11.6926100933866,25.8539133210971,0.101861239462839,-0.179870766269502,3,13.9133680555556,29.9
4.03333333333333,11.6925888572991,25.854919268076,0.00652657650093327,-0.0953346629619053,3,13.9133680555556,29.9
4.06666666666667,11.6925908376128,25.8546220081439,0.00959754118964536,0.00307096468871209,5,13.9133680555556,29.9
4.1,11.6926016318343,25.8543248453113,0.00641960390239169,-0.00317793728725367,5,13.9133680555556,29.9
4.13333333333333,11.6926016318343,25.8543248453113,0.00969603454203089,0.0032764306396392,5,13.9133680555556,29.9
4.16666666666667,11.6926016318343,25.8543248453113,0.0131437045239294,0.00344766998189851,5,13.9133680555556,29.9
4.2,11.6926016318343,25.8543248453113,0.0164846061346623,0.00334090161073292,5,13.9133680555556,29.9
4.23333333333333,11.6926016318343,25.8543248453113,0.0194322987176922,0.00294769258302986,5,13.9133680555556,29.9
4.26666666666667,11.6926016318343,25.8543248453113,0.0217252772665424,0.00229297854885023,5,13.9133680555556,29.9
4.3,11.6926016318343,25.8543248453113,0.0231535754296511,0.00142829816310865,5,13.9133680555556,29.9
4.33333333333333,11.6926016318343,25.8543248453113,0.0235772671639119,0.000423691734260899,5,13.9133680555556,29.9
4.36666666666667,11.6926016318343,25.8543248453113,0.0229364039516775,-0.000640863212234433,5,13.9133680555556,29.9
4.4,11.6926016318343,25.8543248453113,0.0212526931621523,-0.0016837107895252,5,13.9133680555556,29.9
4.43333333333333,11.6926016318343,25.8543248453113,0.0186238470245481,-0.00262884613760422,5,13.9133680555556,29.9
4.46666666666667,11.6926016318343,25.8543248453113,0.0152119872748022,-0.00341185974974591,5,13.9133680555556,29.9
4.5,11.6926016318343,25.8543248453113,0.0112277704142456,-0.00398421686055662,5,13.9133680555556,29.9
4.53333333333333,11.6926016318343,25.8543248453113,0.00691200923434151,-0.00431576117990406,5,13.9133680555556,29.9
4.56666666666667,11.6926016318343,25.8543248453113,0.00251652561894908,-0.00439548361539243,5,13.9133680555556,29.9
4.6,11.6926016318343,25.8543248453113,0.00171419639492101,-0.00080232922402807,5,13.9133680555556,29.9
4.63333333333333,11.6926016318343,25.8543248453113,0.00555924874538624,0.00384505235046523,5,13.9133680555556,29.9
4.66666666666667,11.6926016318343,25.8543248453113,0.00883444191951129,0.00327519317412505,5,13.9133680555556,29.9
4.7,11.6926016318343,25.8543248453113,0.0114017160268856,0.0025672741073743,5,13.9133680555556,29.9
4.73333333333333,11.6926016318343,25.8543248453113,0.0130759481042863,0.00167423207740074,5,13.9133680555556,29.9
4.76666666666667,11.6925985699652,25.8546028602527,0.0185556523064428,0.00547970420215646,5,13.9133680555556,29.9
4.8,11.6925906148244,25.855325186555,0.0337473734469026,0.0151917211404598,5,13.9133680555556,29.9
4.83333333333333,11.6925727519214,25.8569469529021,0.0675625625331265,0.0338151890862239,4,13.9133680555556,29.9
4.86666666666667,11.6925390766532,25.860003633237,0.117441523479644,0.049878960946518,4,13.9133680555556,29.9
4.9,11.6924869500879,25.8647329551034,0.166911663116182,0.0494701396365379,4,13.9133680555556,29.9
4.93333333333333,11.6924166671014,25.8711041484707,0.21549966537133,0.0485880022551476,4,13.9133680555556,29.9
4.96666666666667,11.6923285585126,25.8790803770546,0.263001833100763,0.0475021677294329,4,13.9133680555556,29.9
5,11.692222942203,25.8886226291385,0.309397226467688,0.0463953933669248,4,13.9133680555556,29.9
5.03333333333333,11.6921000785507,25.8996933875599,0.354720882942091,0.0453236564744037,4,13.9133680555556,29.9
5.06666666666667,11.6919601666467,25.9122567883519,0.399001660832876,0.0442807778907847,4,13.9133680555556,29.9
5.1,11.6918033481463,25.9262782979457,0.442264359948455,0.0432626991155788,4,13.9133680555556,29.9
5.13333333333333,11.6916297128471,25.9417244592892,0.484528705094249,0.0422643451457945,4,13.9133680555556,29.9
5.16666666666667,11.6914393107156,25.9585622835516,0.525791292310821,0.0412625872165713,4,13.9133680555556,29.9
5.2,11.6912321666785,25.9767586159991,0.566047944245843,0.0402566519350223,4,13.9133680555556,29.9
5.23333333333333,11.6910082888491,25.9962803045734,0.605304839761116,0.039256895515273,4,13.9133680555556,29.9
5.26666666666667,11.6907676779711,26.0170944287149,0.643575088308243,0.0382702485471267,4,13.9133680555556,29.9
5.3,11.6905103389414,26.0391684613014,0.680876000963479,0.0373009126552369,4,13.9133680555556,29.9
5.33333333333333,11.690236292122,26.0624705107847,0.717240563904209,0.0363645629407299,4,13.9133680555556,29.9
5.36666666666667,11.6899455762858,26.0869703122585,0.752734097112015,0.0354935332078052,4,13.9133680555556,29.9
5.4,11.689638256402,26.1126396950601,0.787415221849857,0.0346811247378422,4,13.9133680555556,29.9
5.43333333333333,11.6893144387965,26.1394522271978,0.821330372942405,0.0339151510925483,4,13.9133680555556,29.9
5.46666666666667,11.6889742835178,26.1673828944958,0.854516967332354,0.0331865943899486,4,13.9133680555556,29.9
5.5,11.6886180127961,26.1964078609499,0.887005889995211,0.0324889226628573,4,13.9133680555556,29.9
5.53333333333333,11.6882459154601,26.2265042804566,0.918821488756633,0.0318155987614216,4,13.9133680555556,29.9
5.56666666666667,11.6878583524715,26.257649671616,0.949952000123562,0.0311305113669293,4,13.9133680555556,29.9
5.6,11.6874557657184,26.2898206616324,0.980364481559884,0.0304124814363218,4,13.9133680555556,29.9
5.63333333333333,11.6870386684922,26.3229930475914,1.010041796111,0.0296773145511122,4,13.9133680555556,29.9
5.66666666666667,11.6866076281732,26.3571422540758,1.03897763483518,0.0289358387241805,4,13.9133680555556,29.9
5.7,11.6861632479506,26.3922436211335,1.06717402914649,0.028196394311313,4,13.9133680555556,29.9
5.73333333333333,11.685706146672,26.4282726678205,1.09464029957585,0.027466270429358,4,13.9133680555556,29.9
5.76666666666667,11.6852369381274,26.4652052931088,1.12139065670517,0.0267503571293235,4,13.9133680555556,29.9
5.8,11.684756210722,26.5030179180027,1.14744409997644,0.0260534432712678,4,13.9133680555556,29.9
5.83333333333333,11.6842645048094,26.5416879016263,1.17284071682337,0.0253966168469293,4,13.9133680555556,29.9
5.86666666666667,11.6837622902486,26.5811940947323,1.19762492529416,0.0247842084707879,4,13.9133680555556,29.9
5.9,11.6832499546294,26.621516699063,1.22183366190898,0.0242087366148229,4,13.9133680555556,29.9
5.93333333333333,11.6827277960358,26.6626370522648,1.24549816243741,0.0236645005284266,4,13.9133680555556,29.9
5.96666666666667,11.6821960196181,26.7045374627203,1.26864530053587,0.0231471380984669,4,13.9133680555556,29.9
6,11.6816547385498,26.7472010814883,1.29129858921,0.0226532886741253,4,13.9133680555556,29.9
6.03333333333333,11.6811039796082,26.7906118019746,1.31347892396792,0.0221803347579228,4,13.9133680555556,29.9
6.06666666666667,11.6805436807528,26.8347552597164,1.33532128016464,0.0218423561967236,4,13.9133680555556,29.9
6.1,11.6799736017409,26.8796276669148,1.35732746506075,0.0220061848961097,4,13.9133680555556,29.9
6.13333333333333,11.6793932114733,26.9252467858987,1.38027937239132,0.0229519073305655,4,13.9133680555556,29.9
