Time,x_ego,y_ego,velocity,acceleration,action,x_ped,y_ped
0,11.8,15.9,5,0,1,15.5,29.9
0.0333333333333333,11.7999969714818,16.0666666666636,0,-5,3,15.5,29.9
0.0666666666666667,11.7999969714818,16.0666666666636,3.94206987317973e-06,3.94206987317973e-06,5,15.5,29.9
0.1,11.7999969714818,16.0666666666636,6.09354603844522e-05,5.69933905112724e-05,5,15.5,29.9
0.133333333333333,11.7999969709525,16.0669467736672,0.0167235035212163,0.0166625680608319,5,15.5,29.9
0.166666666666667,11.799996969122,16.0678551173092,0.0386965812128273,0.0219730776916109,4,15.5,29.9
0.2,11.7999969633029,16.0695769707158,0.0652396815880915,0.0265431003752643,4,15.5,29.9
0.233333333333333,11.7999969468552,16.072237745422,0.0948170304642897,0.0295773488761981,4,15.5,29.9
0.266666666666667,11.7999969064479,16.0759187965354,0.126300586390826,0.0314835559265358,4,15.5,29.9
0.3,11.7999968288323,16.0806691741625,0.158864631561929,0.0325640451711034,4,15.5,29.9
0.333333333333333,11.7999967417338,16.0865143363417,0.19190755302258,0.0330429214606509,4,15.5,29.9
0.366666666666667,11.799996720629,16.0934626058734,0.224993811867886,0.0330862588453064,4,15.5,29.9
0.4,11.7999968837442,16.1015101042616,0.257829078978821,0.0328352671109346,4,15.5,29.9
0.433333333333333,11.7999973861125,16.1106458803975,0.290275094271038,0.0324460152922174,4,15.5,29.9
0.466666666666667,11.7999984190862,16.1208846410086,0.323994404011158,0.0337193097401194,4,15.5,29.9
0.5,11.8000002117641,16.1323251199545,0.362362695499028,0.0383682914878707,4,15.5,29.9
0.533333333333333,11.8000030350906,16.1451214489813,0.405327349092887,0.0429646535938582,4,15.5,29.9
0.566666666666667,11.8000072072827,16.1593387025963,0.447601767251169,0.0422744181582823,4,15.5,29.9
0.6,11.8000130936501,16.1749528069378,0.489123525392617,0.0415217581414479,4,15.5,29.9
0.633333333333333,11.8000210997089,16.1919375627607,0.529827017926398,0.0407034925337813,4,15.5,29.9
0.666666666666667,11.8000316608856,16.210264792877,0.569662880204378,0.0398358622779801,4,15.5,29.9
0.7,11.8000452294533,16.2299050242012,0.608601710071953,0.0389388298675748,4,15.5,29.9
0.733333333333333,11.8000622592275,16.2508280589824,0.64662860583069,0.0380268957587374,4,15.5,29.9
0.766666666666667,11.8000831887331,16.2730033888536,0.683739014665545,0.0371104088348548,4,15.5,29.9
0.8,11.8001084237098,16.2964006355717,0.719951682920456,0.0362126682549112,4,15.5,29.9
0.833333333333333,11.8001383199799,16.3209907652971,0.755321922462338,0.0353702395418821,4,15.5,29.9
0.866666666666667,11.8001731676801,16.3467465454301,0.789899183520215,0.0345772610578765,4,15.5,29.9
0.9,11.800213177813,16.3736422397308,0.823724061439501,0.033824877919286,4,15.5,29.9
0.933333333333333,11.8002584720077,16.4016533519093,0.856830532580482,0.0331064711409811,4,15.5,29.9
0.966666666666667,11.8003090762141,16.430756433165,0.889247597190644,0.0324170646101621,4,15.5,29.9
1,11.8003649188742,16.4609289265281,0.920998065532557,0.0317504683419128,4,15.5,29.9
1.03333333333333,11.800425833772,16.4921484937133,0.952066033084627,0.0310679675520699,4,15.5,29.9
1.06666666666667,11.8004915675194,16.5243918034708,0.982418741764437,0.0303527086798103,4,15.5,29.9
1.1,11.8005617918123,16.5576346986859,1.01203943663437,0.0296206948699319,4,15.5,29.9
1.13333333333333,11.8006361198745,16.5918526502744,1.04092153450445,0.0288820978700814,4,15.5,29.9
1.16666666666667,11.800714126291,16.6270210442411,1.06906673806759,0.0281452035631433,4,15.5,29.9
1.2,11.8007953693069,16.6631154491794,1.09648392271169,0.0274171846440958,4,15.5,29.9
1.23333333333333,11.800879414427,16.7001118156148,1.12318684177355,0.0267029190618626,4,15.5,29.9
1.26666666666667,11.8009658580303,16.737986626162,1.14919507607718,0.0260082343036312,4,15.5,29.9
1.3,11.8010543498263,16.7767173476888,1.17454939997189,0.0253543238947072,4,15.5,29.9
1.33333333333333,11.8011446127588,16.8162829339262,1.19929357337121,0.0247441733993228,4,15.5,29.9
1.36666666666667,11.8012364587805,16.8566636723834,1.22346415060312,0.0241705772319023,4,15.5,29.9
1.4,11.8013297996764,16.8978409733178,1.24709217265724,0.0236280220541278,4,15.5,29.9
1.43333333333333,11.8014246521957,16.9397972078634,1.27020442274216,0.0231122500849132,4,15.5,29.9
1.46666666666667,11.8015211370287,16.9825155823835,1.2928243626286,0.0226199398864455,4,15.5,29.9
1.5,11.8016193832406,17.02598003996,1.31497282104858,0.0221484584199756,4,15.5,29.9
1.53333333333333,11.8017192619538,17.0701751823309,1.33666853351382,0.021695712465247,4,15.5,29.9
1.56666666666667,11.8018206661228,17.1150862067105,1.35792857788145,0.0212600443676225,4,15.5,29.9
1.6,11.8019236030868,17.1606988059009,1.37876343528606,0.020834857404608,4,15.5,29.9
1.63333333333333,11.8020281887985,17.206998797394,1.39917213811517,0.0204087028291142,4,15.5,29.9
1.66666666666667,11.8021346347349,17.253971993339,1.4191564999257,0.0199843618105264,4,15.5,29.9
1.7,11.8022432290247,17.3016043316874,1.43872203084782,0.019565530922123,4,15.5,29.9
1.73333333333333,11.8023543135019,17.3498819780786,1.45787671899486,0.0191546881470366,4,15.5,29.9
1.76666666666667,11.8024681528531,17.3987913931831,1.47663014015232,0.0187534211574669,4,15.5,29.9
1.8,11.8025846103984,17.4483193753675,1.49499284301507,0.018362702862744,4,15.5,29.9
1.83333333333333,11.8027033740997,17.4984530850146,1.51297590070531,0.0179830576902416,2,15.5,29.9
1.86666666666667,11.8028237465506,17.5491801917831,1.53060869373039,0.017632793025077,2,15.5,29.9
1.9,11.80294506063,17.6004912507042,1.548055918251,0.0174472245206185,2,15.5,29.9
1.93333333333333,11.8030668419626,17.6523850215141,1.56563036775441,0.0175744495034065,2,15.5,29.9
1.96666666666667,11.8031888344296,17.7048718182759,1.58369961306038,0.0180692453059734,4,15.5,29.9
2,11.8033110079423,17.7579742654797,1.60262773247913,0.0189281194187427,4,15.5,29.9
2.03333333333333,11.8034335505805,17.8117266025225,1.62274382308382,0.0201160906046907,4,15.5,29.9
2.06666666666667,11.8035568476096,17.8661732244128,1.64432737193216,0.0215835488483476,4,15.5,29.9
2.1,11.8036814504735,17.9213670832949,1.66761284986349,0.0232854779313223,4,15.5,29.9
2.13333333333333,11.8038080384353,17.9773679653034,1.69277109208712,0.0251582422236358,4,15.5,29.9
2.16666666666667,11.8039373749524,18.0342401527158,1.71990373225702,0.0271326401698968,4,15.5,29.9
2.2,11.8040702628259,18.0920504561833,1.74906348971532,0.0291597574583038,4,15.5,29.9
2.23333333333333,11.8042075008313,18.1508666623991,1.78025478262203,0.0311912929067051,4,15.5,29.9
2.26666666666667,11.8043498435374,18.2107558721651,1.81343362526249,0.0331788426404638,4,15.5,29.9
2.3,11.8044979669998,18.2717830920311,1.84852161331144,0.0350879880489519,4,15.5,29.9
2.33333333333333,11.8046524429123,18.3340105281989,1.88543333447609,0.0369117211646481,4,15.5,29.9
2.36666666666667,11.8048137225288,18.3974974077935,1.9240702038018,0.0386368693257046,4,15.5,29.9
2.4,11.8049821296154,18.4622991857583,1.96430544903863,0.0402352452368313,4,15.5,29.9
2.43333333333333,11.8051578635824,18.5284666988957,2.00598277374172,0.0416773247030928,4,15.5,29.9
2.46666666666667,11.8053410094467,18.5960435837821,2.0487967169052,0.0428139431634831,4,15.5,29.9
2.5,11.805531547483,18.6650588666538,2.09215980847852,0.0433630915733203,4,15.5,29.9
2.53333333333333,11.8057293602583,18.7355155153859,2.13507488479749,0.0429150763189652,4,15.5,29.9
2.56666666666667,11.8059342347105,18.8073762394072,2.17615884335328,0.0410839585557925,4,15.5,29.9
2.6,11.8061458707918,18.8805554925059,2.21395312151376,0.0377942781604781,4,15.5,29.9
2.63333333333333,11.8063639030431,18.9549225077104,2.24726768917888,0.033314567665117,4,15.5,29.9
2.66666666666667,11.8065879326381,19.0303141515748,2.27532586977113,0.0280581805922577,4,15.5,29.9
2.7,11.8068175469577,19.1065452630954,2.29752156190684,0.022195692135702,4,15.5,29.9
2.73333333333333,11.8070523116028,19.1834089748879,2.31328067441916,0.0157591125123191,2,15.5,29.9
2.76666666666667,11.8072918099089,19.2607034013154,2.3236477725854,0.0103670981662405,2,15.5,29.9
2.8,11.8075357190425,19.3382750904352,2.33013248641042,0.00648471382502702,2,15.5,29.9
2.83333333333333,11.8077837922141,19.4160139667052,2.33383474818183,0.00370226177140376,2,15.5,29.9
2.86666666666667,11.8080358294533,19.4938411438474,2.33554307044224,0.00170832226041107,2,15.5,29.9
2.9,11.8082916585359,19.5717000909282,2.33582255238664,0.000279481944401194,2,15.5,29.9
2.93333333333333,11.8085511242351,19.64955030015,2.33507815251566,-0.000744399870981738,2,15.5,29.9
2.96666666666667,11.8088140838764,19.7273627482501,2.33360005872024,-0.00147809379541597,2,15.5,29.9
3,11.8090804072098,19.805116643463,2.33159622499114,-0.00200383372910018,2,15.5,29.9
3.03333333333333,11.8093499787106,19.882797093909,2.32921570261135,-0.00238052237978836,2,15.5,29.9
3.06666666666667,11.809622700633,19.9603934364121,2.32656536307569,-0.00265033953566673,2,15.5,29.9
3.1,11.8098984954848,20.0378980386845,2.32372187452193,-0.00284348855375249,2,15.5,29.9
3.13333333333333,11.810177307042,20.1153054407957,2.32074026920236,-0.0029816053195697,2,15.5,29.9
3.16666666666667,11.8104588240831,20.1926117405588,2.31766004137512,-0.00308022782724615,2,15.5,29.9
3.2,11.8107417475456,20.2698141545237,2.31450955215435,-0.00315048922076455,2,15.5,29.9
3.23333333333333,11.8110245648208,20.3469106999401,2.31130915460686,-0.00320039754749413,2,15.5,29.9
3.26666666666667,11.811304945108,20.423899969889,2.30807341365478,-0.00323574095207846,2,15.5,29.9
3.3,11.8115794787034,20.5007809717289,2.30481273169743,-0.00326068195734974,2,15.5,29.9
3.33333333333333,11.8118430685786,20.5775530124935,2.30153454006754,-0.00327819162988785,2,15.5,29.9
3.36666666666667,11.8120892808043,20.6542156144168,2.29824418417266,-0.00329035589488047,2,15.5,29.9
3.4,11.8123110807774,20.7307684526175,2.29494553629064,-0.00329864788202583,2,15.5,29.9
3.43333333333333,11.8125017448713,20.8072113088578,2.2916414067375,-0.00330412955314197,2,15.5,29.9
3.46666666666667,11.8126566028806,20.8835440349842,2.28833376219789,-0.00330764453960297,2,15.5,29.9
3.5,11.8127743918897,20.9597665267038,2.28502387684548,-0.00330988535241339,2,15.5,29.9
3.53333333333333,11.812857109252,21.0358787088098,2.28171253082542,-0.00331134602006244,2,15.5,29.9
3.56666666666667,11.8129096119314,21.1118805263913,2.27840015587412,-0.00331237495129466,2,15.5,29.9
3.6,11.8129395257751,21.1877719388864,2.27508704239613,-0.00331311347798913,2,15.5,29.9
3.63333333333333,11.8129556584051,21.2635529201332,2.27177347036685,-0.00331357202928473,2,15.5,29.9
3.66666666666667,11.8129677826492,21.339223455727,2.26845972425211,-0.00331374611473523,2,15.5,29.9
3.7,11.8129856728163,21.4147835425329,2.26514620799889,-0.00331351625322718,2,15.5,29.9
3.73333333333333,11.8130174905221,21.4902331893543,2.26183333577428,-0.00331287222460386,2,15.5,29.9
3.76666666666667,11.8130697377627,21.5655724139617,2.25852146484194,-0.00331187093234453,2,15.5,29.9
3.8,11.8131461731302,21.6408012638809,2.25521360620238,-0.00330785863956118,2,15.5,29.9
3.83333333333333,11.813247591633,21.7159201057327,2.2519261095505,-0.00328749665187322,2,15.5,29.9
3.86666666666667,11.8133721275081,21.7909299072117,2.24867581415953,-0.00325029539096811,2,15.5,29.9
3.9,11.8135157566696,21.8658321247128,2.24547502350529,-0.00320079065424794,2,15.5,29.9
3.93333333333333,11.8136729337593,21.940628573806,2.24233274370608,-0.00314227979921089,2,15.5,29.9
3.96666666666667,11.8138372948,22.0153213334438,2.23925558532956,-0.0030771583765139,2,15.5,29.9
4,11.8140023574941,22.0899126744546,2.23624840610107,-0.00300717922849625,2,15.5,29.9
4.03333333333333,11.8141621568116,22.1644050057638,2.23331475761245,-0.00293364848861266,2,15.5,29.9
4.06666666666667,11.8143117635014,22.2388008336978,2.23045719124936,-0.00285756636309609,2,15.5,29.9
4.1,11.8144476472121,22.3131027310781,2.22767747039399,-0.00277972085536593,2,15.5,29.9
4.13333333333333,11.8145678631001,22.3873133137333,2.22497672572261,-0.00270074467138448,2,15.5,29.9
4.16666666666667,11.8146720596591,22.4614352226583,2.22235557849718,-0.0026211472254305,2,15.5,29.9
4.2,11.8147613240141,22.535471110439,2.21981424501923,-0.00254133347794738,2,15.5,29.9
4.23333333333333,11.8148378969488,22.6094236308307,2.21735262613364,-0.00246161888559282,2,15.5,29.9
4.26666666666667,11.8149048015008,22.6832954305944,2.21497038042163,-0.00238224571200707,2,15.5,29.9
4.3,11.8149654346734,22.7570891428837,2.21266697872808,-0.00230340169354992,2,15.5,29.9
4.33333333333333,11.8150231711501,22.8308073816589,2.21044173976808,-0.00222523895999416,2,15.5,29.9
4.36666666666667,11.815081021266,22.9044527367673,2.20829384979169,-0.0021478899763947,2,15.5,29.9
4.4,11.8151413742113,22.9780277694698,2.20622237175953,-0.00207147803215646,2,15.5,29.9
4.43333333333333,11.8152058434488,23.0515350082984,2.20422625009788,-0.00199612166165375,2,15.5,29.9
4.46666666666667,11.815275216846,23.1249769452013,2.20230431582945,-0.00192193426843179,2,15.5,29.9
4.5,11.8153495011396,23.1983560319659,2.20045529452152,-0.0018490213079323,2,15.5,29.9
4.53333333333333,11.8154280407028,23.2716746769278,2.19867781714802,-0.00177747737349554,2,15.5,29.9
4.56666666666667,11.8155096850862,23.3449352419754,2.19697043246305,-0.00170738468496934,2,15.5,29.9
4.6,11.8155929785981,23.418140039853,2.1953316191106,-0.00163881335244564,2,15.5,29.9
4.63333333333333,11.8156763477125,23.4912913317666,2.19375979620561,-0.00157182290499103,2,15.5,29.9
4.66666666666667,11.8157582672582,23.5643913252923,2.1922533319977,-0.00150646420791345,2,15.5,29.9
4.7,11.8158373928471,23.6374421725873,2.19081055098323,-0.00144278101447037,2,15.5,29.9
4.73333333333333,11.8159126535594,23.7104459689039,2.18942974019548,-0.00138081078774555,2,15.5,29.9
4.76666666666667,11.8159833045153,23.7834047514004,2.18810915536484,-0.00132058483064368,2,15.5,29.9
4.8,11.8160489430334,23.8563204982404,2.1868470273553,-0.00126212800954528,2,15.5,29.9
4.83333333333333,11.8161094944348,23.9291951279637,2.18564156894524,-0.00120545841005582,2,15.5,29.9
4.86666666666667,11.8161651744202,24.0020304991088,2.18449098176914,-0.00115058717609529,2,15.5,29.9
4.9,11.8162164347713,24.0748284100601,2.18339346312523,-0.00109751864391194,2,15.5,29.9
4.93333333333333,11.8162638984282,24.1475905990976,2.18234721236486,-0.00104625076037168,2,15.5,29.9
4.96666666666667,11.816308289227,24.2203187446236,2.18135043666306,-0.000996775701796793,2,15.5,29.9
5,11.8163503610204,24.2930144655453,2.18040135607873,-0.000949080584329742,2,15.5,29.9
5.03333333333333,11.816390830607,24.3656793217987,2.17949820791527,-0.000903148163468703,2,15.5,29.9
5.06666666666667,11.8164303187442,24.4383148149955,2.17863925047171,-0.000858957443553354,2,15.5,29.9
5.1,11.8164693032823,24.5109223891852,2.17782276632221,-0.00081648414949953,2,15.5,29.9
5.13333333333333,11.8165080878871,24.5835034317181,2.1770470652729,-0.000775701049311461,2,15.5,29.9
5.16666666666667,11.81654678876,24.6560592742016,2.17631048711986,-0.00073657815304129,2,15.5,29.9
5.2,11.8165853401956,24.72859119354,2.17561140427643,-0.000699082843432564,2,15.5,29.9
5.23333333333333,11.8166235178943,24.8011004130508,2.1749482242708,-0.000663180005629815,2,15.5,29.9
5.26666666666667,11.8166609769354,24.8735881036488,2.17431939205908,-0.000628832211718056,2,15.5,29.9
5.3,11.8166972995818,24.9460553850963,2.17372339207533,-0.000595999983749707,2,15.5,29.9
5.33333333333333,11.8167320469395,25.0185033273109,2.17315874995542,-0.000564642119911252,2,15.5,29.9
5.36666666666667,11.8167648081872,25.09093295173,2.17262403391551,-0.000534716039904293,2,15.5,29.9
5.4,11.8167952416853,25.1633452327264,2.17211785581483,-0.000506178100680543,2,15.5,29.9
5.43333333333333,11.8168231036908,25.2357410990688,2.17163887196215,-0.000478983852688408,2,15.5,29.9
5.46666666666667,11.8168482623799,25.308121435419,2.1711857837236,-0.000453088238542954,2,15.5,29.9
5.5,11.8168706970796,25.3804870838579,2.1707573379608,-0.000428445762806984,2,15.5,29.9
5.53333333333333,11.8168904846418,25.4528388454269,2.17035232729039,-0.000405010670405659,2,15.5,29.9
5.56666666666667,11.816907776443,25.5251774816746,2.16996959013127,-0.00038273715911652,2,15.5,29.9
5.6,11.8169227703335,25.597503716197,2.16960801050389,-0.000361579627385478,2,15.5,29.9
5.63333333333333,11.816935681933,25.6698182361604,2.1692665175682,-0.000341492935683529,2,15.5,29.9
5.66666666666667,11.8169467190417,25.7421216937993,2.16894408491945,-0.000322432648754312,2,15.5,29.9
5.7,11.8169560618208,25.8144147078833,2.16863972968901,-0.000304355230439146,2,15.5,29.9
5.73333333333333,11.8169638500468,25.8866978651486,2.16835251151139,-0.000287218177620563,2,15.5,29.9
5.76666666666667,11.8169701774429,25.9589717216922,2.16808153141462,-0.000270980096773066,2,15.5,29.9
5.8,11.8169750920629,26.0312368043285,2.16782593067629,-0.000255600738324535,2,15.5,29.9
5.83333333333333,11.8169786010834,26.1034936119077,2.16758488966848,-0.000241041007810416,2,15.5,29.9
5.86666666666667,11.816980678184,26.1757426165957,2.16735762669883,-0.000227262969652919,2,15.5,29.9
5.9,11.8169812718973,26.2479842651168,2.16714339684575,-0.000214229853078951,2,15.5,29.9
5.93333333333333,11.8169803137625,26.3202189799576,2.16694149078235,-0.00020190606340309,2,15.5,29.9
5.96666666666667,11.8169777256468,26.3924471605321,2.16675123358488,-0.000190257197469457,2,15.5,29.9
6,11.8169734260744,26.4646691843083,2.166571983525,-0.000179250059874736,2,15.5,29.9
6.03333333333333,11.8169673357018,26.5368854078937,2.16640313084897,-0.000168852676034614,2,15.5,29.9
6.06666666666667,11.8169593821764,26.6090961680815,2.1662440965503,-0.000159034298671479,2,15.5,29.9
6.1,11.8169495045212,26.6813017828559,2.16609433114496,-0.000149765405336399,2,15.5,29.9
6.13333333333333,11.8169376569866,26.7535025523582,2.16595331345893,-0.000141017686031919,2,15.5,29.9
6.16666666666667,11.8169238120894,26.8256987598121,2.1658205494374,-0.000132764021528065,2,15.5,29.9
6.2,11.8169079624105,26.8978906724106,2.1656955709829,-0.000124978454501878,2,15.5,29.9
6.23333333333333,11.8168901207188,26.9700785421651,2.16557793482612,-0.000117636156783174,2,15.5,29.9
6.26666666666667,11.816870318129,27.0422626067157,2.16546722142969,-0.000110713396425766,2,15.5,29.9
6.3,11.816848600282,27.1144430901056,2.16536303392181,-0.000104187507877995,2,15.5,29.9
6.33333333333333,11.8168250218699,27.1866202035188,2.16526499705471,-9.80368670995269e-05,2,15.5,29.9
6.36666666666667,11.8167996401477,27.2587941459822,2.16517275618327,-9.22408714436607e-05,2,15.5,29.9
6.4,11.8167725082958,27.3309651050334,2.16508597626108,-8.67799221841992e-05,2,15.5,29.9
6.43333333333333,11.8167436695581,27.4031332573546,2.16500434085484,-8.16354062407321e-05,2,15.5,29.9
6.46666666666667,11.8167131529727,27.475298769374,2.16492755118121,-7.6789673631783e-05,2,15.5,29.9
6.5,11.8166809712488,27.5474617978363,2.16485532517303,-7.22260081822412e-05,2,15.5,29.9
6.53333333333333,11.8166471209755,27.6196224903435,2.16478739658221,-6.79285908220528e-05,2,15.5,29.9
6.56666666666667,11.816611584964,27.6917809858671,2.16472351412569,-6.38824565188933e-05,2,15.5,29.9
6.6,11.8165743361862,27.7639374152345,2.16466344067856,-6.00734471256636e-05,2,15.5,29.9
6.63333333333333,11.8165353425559,27.8360919015898,2.16460695251563,-5.64881629303571e-05,2,15.5,29.9
6.66666666666667,11.8164945717324,27.9082445608303,2.16455383860011,-5.31139155244276e-05,2,15.5,29.9
6.7,11.8164519952133,27.9803955020209,2.16450389991599,-4.9938684122619e-05,2,15.5,29.9
6.73333333333333,11.8164075911944,28.0525448277861,2.16445694883918,-4.69510768033032e-05,2,15.5,29.9
6.76666666666667,11.81636134596,28.1246926346814,2.16441280854175,-4.41402974313831e-05,2,15.5,29.9
6.8,11.8163132538526,28.1968390135444,2.16437131242356,-4.14961181909312e-05,2,15.5,29.9
6.83333333333333,11.8162633161136,28.2689840498266,2.16433230356666,-3.90088569037772e-05,2,15.5,29.9
6.86666666666667,11.8162115390347,28.3411278239064,2.1642956342091,-3.66693575530874e-05,2,15.5,29.9
6.9,11.8161579318953,28.4132704113853,2.16426116523696,-3.44689721423208e-05,2,15.5,29.9
