Time,x_ego,y_ego,velocity,acceleration,action,x_ped,y_ped
0,11.8,15.9,5,0,1,15.5,29.9
0.0333333333333333,11.8000060869133,16.0666076888294,4.99642264116822,-0.00357735883177668,1,15.5,29.9
0.0666666666666667,11.8000451362106,16.2330926525486,4.99264789095766,-0.00377475021056828,1,15.5,29.9
0.1,11.8001403693899,16.3994492915826,4.98873250137115,-0.00391538958650894,1,15.5,29.9
0.133333333333333,11.8003051655831,16.5656735998244,4.98471698561045,-0.00401551576069359,1,15.5,29.9
0.166666666666667,11.8005447631217,16.7317627102979,4.98063012338234,-0.00408686222811205,1,15.5,29.9
0.2,11.8008583479969,16.8977145725364,4.976492350721,-0.00413777266133941,1,15.5,29.9
0.233333333333333,11.8012410925094,17.0635277240247,4.97231824229238,-0.00417410842861621,1,15.5,29.9
0.266666666666667,11.8016858831357,17.2292011277122,4.96811826862232,-0.00419997367006619,1,15.5,29.9
0.3,11.8021846372462,17.3947340554641,4.96390000750106,-0.00421826112126222,1,15.5,29.9
0.333333333333333,11.8027292259761,17.5601260034931,4.95966897139077,-0.00423103611028708,1,15.5,29.9
0.366666666666667,11.8033120846906,17.7253766303484,4.95542917852575,-0.00423979286501908,1,15.5,29.9
0.4,11.8039266076794,17.8904857111397,4.95118355643779,-0.0042456220879652,1,15.5,29.9
0.433333333333333,11.8045674046884,18.0554531036903,4.94693423384885,-0.00424932258893307,1,15.5,29.9
0.466666666666667,11.8052304623681,18.2202787236049,4.94268275466259,-0.00425147918625779,1,15.5,29.9
0.5,11.8059132207182,18.3849625260786,4.93843023509915,-0.00425251956344397,1,15.5,29.9
0.533333333333333,11.8066145545703,18.5495044928411,4.93417747852083,-0.00425275657831925,1,15.5,29.9
0.566666666666667,11.8073346473176,18.713904623027,4.92992505900486,-0.00425241951596966,1,15.5,29.9
0.6,11.808074756089,18.8781629270415,4.92567338224392,-0.00425167676093707,1,15.5,29.9
0.633333333333333,11.808836887602,19.0422794226832,4.92142273015389,-0.00425065209003339,1,15.5,29.9
0.666666666666667,11.809623423712,19.2062541329244,4.91717329369659,-0.0042494364573038,1,15.5,29.9
0.7,11.8104367480962,19.3700870848389,4.91292519713362,-0.00424809656296254,1,15.5,29.9
0.733333333333333,11.8112789265388,19.533778309235,4.9086785162196,-0.00424668091402136,1,15.5,29.9
0.766666666666667,11.812151482628,19.6973278406178,4.90443329240468,-0.00424522381492309,1,15.5,29.9
0.8,11.8130552913854,19.8607357171847,4.90018954456983,-0.00424374783485426,1,15.5,29.9
0.833333333333333,11.8139905905085,20.0240019806542,4.89594727903624,-0.0042422655335832,1,15.5,29.9
0.866666666666667,11.8149570880575,20.1871266758421,4.89170649778636,-0.00424078124988725,1,15.5,29.9
0.9,11.8159541310398,20.3501098500003,4.88746720436581,-0.00423929342054574,1,15.5,29.9
0.933333333333333,11.8169808938928,20.5129515520111,4.88322940700879,-0.00423779735701668,1,15.5,29.9
0.966666666666667,11.8180365493807,20.6756518315689,4.8789931190371,-0.00423628797169684,1,15.5,29.9
1,11.8191203949013,20.838210738476,4.8747583571939,-0.00423476184319149,1,15.5,29.9
1.03333333333333,11.8202319213303,21.0006283221478,4.87052513895344,-0.00423321824046319,1,15.5,29.9
1.06666666666667,11.8213708256615,21.1629046313649,4.86629347985078,-0.00423165910266476,1,15.5,29.9
1.1,11.8225363774164,21.3250397175624,4.86206330032476,-0.00423017952602134,1,15.5,29.9
1.13333333333333,11.8237253288771,21.4870336470211,4.85783448158233,-0.00422881874242531,1,15.5,29.9
1.16666666666667,11.824932878832,21.6488864973412,4.85360706274723,-0.00422741883509659,1,15.5,29.9
1.2,11.8261549324815,21.8105983449853,4.84938108492974,-0.00422597781749445,1,15.5,29.9
1.23333333333333,11.8273864713512,21.9721692744156,4.84515653370022,-0.00422455122952137,1,15.5,29.9
1.26666666666667,11.8286222119434,22.1335993742286,4.84093350708245,-0.00422302661777074,1,15.5,29.9
1.3,11.8298585275509,22.2948887244873,4.8367120685577,-0.0042214385247421,1,15.5,29.9
1.33333333333333,11.831092079059,22.4560374041739,4.83249226727463,-0.00421980128307631,1,15.5,29.9
1.36666666666667,11.8323215863392,22.6170454789858,4.82827417339422,-0.00421809388041172,1,15.5,29.9
1.4,11.833547850388,22.7779130000624,4.82405780273981,-0.00421637065440361,1,15.5,29.9
1.43333333333333,11.8347730839406,22.938640009379,4.81984336549341,-0.00421443724639925,1,15.5,29.9
1.46666666666667,11.8360003059452,23.0992265749955,4.81563288019621,-0.0042104852972038,1,15.5,29.9
1.5,11.8372328398039,23.259672865949,4.8114303236884,-0.00420255650781343,1,15.5,29.9
1.53333333333333,11.8384739271067,23.419979197769,4.80724031142869,-0.00419001225970828,1,15.5,29.9
1.56666666666667,11.8397264518963,23.5801460409196,4.80306732512393,-0.00417298630475393,1,15.5,29.9
1.6,11.8409927628145,23.7401740165098,4.79891575694506,-0.0041515681788713,1,15.5,29.9
1.63333333333333,11.84227457877,23.9000638948419,4.79478982291687,-0.0041259340281945,1,15.5,29.9
1.66666666666667,11.8435729648574,24.0598165819953,4.79069311194138,-0.00409671097548436,1,15.5,29.9
1.7,11.8448883669511,24.2194330950807,4.78662841070313,-0.00406470123825553,1,15.5,29.9
1.73333333333333,11.8462206938501,24.3789145371777,4.78259787520196,-0.00403053550116628,1,15.5,29.9
1.76666666666667,11.8475694347138,24.5382620780411,4.77860311198828,-0.00399476321368386,1,15.5,29.9
1.8,11.8489337975238,24.6974769314111,4.77464498406178,-0.00395812792650219,1,15.5,29.9
1.83333333333333,11.850312852873,24.8565603324541,4.77072392551438,-0.00392105854739278,1,15.5,29.9
1.86666666666667,11.8517050761395,25.0155135333443,4.76684016481102,-0.00388376070336705,1,15.5,29.9
1.9,11.8531064562732,25.1743378110993,4.76299362856683,-0.00384653624418796,1,15.5,29.9
1.93333333333333,11.8545115697943,25.3330344493746,4.75918400967816,-0.00380961888867137,1,15.5,29.9
1.96666666666667,11.8559158911035,25.4916047109966,4.75541080862232,-0.00377320105584023,1,15.5,29.9
2,11.8573142342749,25.6500498462792,4.75167346371777,-0.00373734490454414,1,15.5,29.9
2.03333333333333,11.8587007946612,25.808371092626,4.74797146033462,-0.00370200338315119,1,15.5,29.9
2.06666666666667,11.860070112986,25.9665696656759,4.74430423915368,-0.00366722118094653,1,15.5,29.9
2.1,11.8614193830917,26.1246467364012,4.74067112679414,-0.00363311235953123,1,15.5,29.9
2.13333333333333,11.8627479137014,26.2826034316603,4.73707126344905,-0.00359986334508999,1,15.5,29.9
2.16666666666667,11.8640549311243,26.4404408454989,4.73350349234341,-0.00356777110564011,1,15.5,29.9
2.2,11.8653411833847,26.59816001367,4.72996621999029,-0.00353727235312817,1,15.5,29.9
2.23333333333333,11.8666089505683,26.755764006941,4.72674053189406,-0.0032256880962267,1,15.5,29.9
2.26666666666667,11.867861696611,26.9132915149401,4.72582376146766,-0.000916770426396596,1,15.5,29.9
2.3,11.869103932064,27.0708652874829,4.72994117242701,0.00411741095934914,1,15.5,29.9
2.33333333333333,11.870340724448,27.2286847360086,4.74059604290503,0.0106548704780156,1,15.5,29.9
2.36666666666667,11.871576877355,27.3869640702506,4.75742543335682,0.0168293904517913,1,15.5,29.9
2.4,11.8728164340092,27.5458964839839,4.77961888976994,0.0221934564131239,4,15.5,29.9
2.43333333333333,11.8740624882764,27.7056440336791,4.80617344657113,0.0265545568011918,4,15.5,29.9
2.46666666666667,11.8753171541025,27.8663367467688,4.83619424321675,0.0300207966456174,4,15.5,29.9
2.5,11.8765810791907,28.0280772482152,4.86892934692486,0.0327351037081058,4,15.5,29.9
2.53333333333333,11.8778521916584,28.1909453417247,4.90375826920165,0.0348289222767946,4,15.5,29.9
2.56666666666667,11.8791281467045,28.3550021690358,4.94017940092025,0.0364211317185958,4,15.5,29.9
2.6,11.8804064965091,28.5202939317655,4.97779531170813,0.0376159107878804,4,15.5,29.9
2.63333333333333,11.8816832356079,28.6868551379466,5.01630088646374,0.0385055747556127,4,15.5,29.9
2.66666666666667,11.8829552211666,28.85471187818,5.05549982973505,0.0391989432713133,4,15.5,29.9
2.7,11.8842207473251,29.0238853390592,5.09528589454426,0.0397860648092045,4,15.5,29.9
2.73333333333333,11.8854792976423,29.1943939240137,5.13559223731286,0.0403063427685968,4,15.5,29.9
2.76666666666667,11.886731238691,29.3662538635698,5.17634710367906,0.0407548663662087,4,15.5,29.9
2.8,11.8879775096896,29.5394786530618,5.21746541897439,0.0411183152953285,4,15.5,29.9
2.83333333333333,11.8892193526012,29.7140789673637,5.25884986322803,0.04138444425364,4,15.5,29.9
2.86666666666667,11.8904580769772,29.8900604395074,5.30028912761164,0.0414392643836052,4,15.5,29.9
2.9,11.8916948748958,30.0674209188467,5.34155249949787,0.041263371886231,4,15.5,29.9
2.93333333333333,11.8929307113949,30.2461510641256,5.38242696844346,0.0408744689455931,4,15.5,29.9
2.96666666666667,11.8941662479811,30.4262335567277,5.42264282103001,0.0402158525865497,4,15.5,29.9
3,11.8954018001789,30.607641870683,5.46193751726464,0.0392946962346308,4,15.5,29.9
3.03333333333333,11.8966373480952,30.7903419337892,5.50009452780654,0.0381570105418945,4,15.5,29.9
3.06666666666667,11.8978725263681,30.9742873756704,5.53652891474048,0.0364343869339434,4,15.5,29.9
3.1,11.8991065869072,31.1594079989731,5.57048028018773,0.0339513654472468,4,15.5,29.9
3.13333333333333,11.9003384593678,31.3456095301339,5.6012887944941,0.0308085143063765,4,15.5,29.9
3.16666666666667,11.9015668606969,31.5327792983509,5.6285169655357,0.0272281710415925,4,15.5,29.9
3.2,11.902790411313,31.7207931962307,5.65189604005486,0.0233790745191591,4,15.5,29.9
3.23333333333333,11.904007717977,31.9095192986225,5.67121357554519,0.0193175354903339,4,15.5,29.9
3.26666666666667,11.9052174278037,32.0988194243944,5.6863169675015,0.0151033919563144,1,15.5,29.9
3.3,11.9064182747927,32.2885520676599,5.69716393819276,0.0108469706912517,1,15.5,29.9
3.33333333333333,11.9076084671248,32.4785785165786,5.70406980058548,0.00690586239272317,1,15.5,29.9
3.36666666666667,11.9087842512495,32.6687832674695,5.70801988737544,0.00395008678996245,1,15.5,29.9
3.4,11.9099419407059,32.8590824989155,5.70984882373039,0.00182893635494974,1,15.5,29.9
3.43333333333333,11.9110761363002,33.0494160439893,5.71015386344623,0.000305039715840394,1,15.5,29.9
3.46666666666667,11.9121806877262,33.2397406574667,5.70936232553523,-0.000791537910996176,1,15.5,29.9
3.5,11.9132510303804,33.4300251870848,5.70777994073506,-0.00158238480017658,1,15.5,29.9
3.53333333333333,11.9142826339276,33.6202471384502,5.70562540401086,-0.00215453672420196,1,15.5,29.9
3.56666666666667,11.9152724687462,33.8103902020901,5.70305526669145,-0.00257013731941047,1,15.5,29.9
3.6,11.9162174575988,34.0004425039161,5.70018161342115,-0.00287365327029665,1,15.5,29.9
3.63333333333333,11.9171164278231,34.1903953328575,5.69708462260856,-0.00309699081258419,1,15.5,29.9
3.66666666666667,11.9179701115789,34.3802422406324,5.69382172633167,-0.00326289627689658,1,15.5,29.9
3.7,11.9187811100849,34.5699783978411,5.69043396844677,-0.00338775788489887,1,15.5,29.9
3.73333333333333,11.9195548850058,34.7596001266725,5.6869507203787,-0.00348324806806488,1,15.5,29.9
3.76666666666667,11.9202973333005,34.9491045829358,5.6833929682945,-0.00355775208420717,1,15.5,29.9
3.8,11.921015514299,35.1384895152902,5.67977581348189,-0.00361715481260738,1,15.5,29.9
3.83333333333333,11.9217162183129,35.3277531062412,5.67611011058888,-0.00366570289301027,1,15.5,29.9
3.86666666666667,11.9224093214636,35.5168938361546,5.67240369128238,-0.00370641930650262,1,15.5,29.9
3.9,11.9231049496271,35.7059104122078,5.6686624014591,-0.00374128982327626,1,15.5,29.9
3.93333333333333,11.9238122666618,35.8948017141793,5.66489061408407,-0.00377178737503314,1,15.5,29.9
3.96666666666667,11.9245384635718,36.0835667543842,5.66109158945044,-0.0037990246336328,1,15.5,29.9
4,11.9252865019789,36.2722046530391,5.65726767363016,-0.00382391582027619,1,15.5,29.9
4.03333333333333,11.9260557110095,36.4607146114659,5.65342062322906,-0.00384705040110322,1,15.5,29.9
4.06666666666667,11.9268430701892,36.6490958939683,5.64955187410376,-0.00386874912529933,1,15.5,29.9
4.1,11.9276442838164,36.8373478142824,5.64566258889985,-0.00388928520390319,1,15.5,29.9
4.13333333333333,11.9284545991674,37.0254697234898,5.64175368344578,-0.00390890545407085,1,15.5,29.9
4.16666666666667,11.9292693788019,37.2134609993198,5.6378258414856,-0.00392784196017981,1,15.5,29.9
4.2,11.9300844682481,37.4013210367399,5.63387953234106,-0.00394630914453842,1,15.5,29.9
4.23333333333333,11.9308964090591,37.5890492400489,5.62991503606858,-0.0039644962724843,1,15.5,29.9
4.26666666666667,11.9317025413357,37.7766450164383,5.62593246855157,-0.00398256751701442,1,15.5,29.9
4.3,11.9325010274655,37.9641077708427,5.62193180533088,-0.00400066322068859,1,15.5,29.9
4.33333333333333,11.9332908166359,38.1514369018882,5.61791290331806,-0.0040189020128123,1,15.5,29.9
4.36666666666667,11.9340715616244,38.3386317987518,5.61387551973006,-0.00403738358800432,1,15.5,29.9
4.4,11.9348434966282,38.5256918387439,5.60981932790479,-0.00405619182526706,1,15.5,29.9
4.43333333333333,11.9356072864128,38.7126163854359,5.60574392992017,-0.00407539798461887,1,15.5,29.9
4.46666666666667,11.9363638605456,38.8994047871592,5.6016488661209,-0.00409506379927116,1,15.5,29.9
4.5,11.9371142494314,39.0860563757146,5.59753362180045,-0.00411524432045329,1,15.5,29.9
4.53333333333333,11.9378594394135,39.2725704651542,5.59339763141692,-0.00413599038352608,1,15.5,29.9
4.56666666666667,11.9386002615648,39.4589463505232,5.58924028082576,-0.0041573505911634,1,15.5,29.9
