Time,x_ego,y_ego,velocity,acceleration,action,x_ped,y_ped
0,11.8,8.9,7,0,1,15.5,29.9
0.0333333333333333,11.7999942160996,9.13327037938194,6.99615579605984,-0.00384420394015716,1,15.4502170138889,29.9
0.0666666666666667,11.7999572244871,9.36640659830689,6.99196966918115,-0.00418612687869047,1,15.4008680555556,29.9
0.1,11.7998660247876,9.59940075050267,6.98769570763801,-0.00427396154314241,1,15.351953125,29.9
0.133333333333333,11.799706901331,9.83225376311499,6.98349927059319,-0.0041964370448202,1,15.3034722222222,29.9
0.166666666666667,11.7994705136874,10.0649678102775,6.97935869410231,-0.00414057649088129,1,15.2554253472222,29.9
0.2,11.7991498134116,10.2975444448717,6.9752584097973,-0.00410028430500908,1,15.2078125,29.9
0.233333333333333,11.7987390054673,10.5299847726413,6.9711872479429,-0.00407116185440248,1,15.1606336805556,29.9
0.266666666666667,11.7982338710693,10.7622895782509,6.96713710709806,-0.00405014084483479,1,15.1138888888889,29.9
0.3,11.7976340590291,10.9944594193237,6.96310208711714,-0.0040350199809227,1,15.067578125,29.9
0.333333333333333,11.7969463098008,11.2264947006668,6.95907739695399,-0.00402469016314733,1,15.0217013888889,29.9
0.366666666666667,11.7961923065895,11.4583957440047,6.95505985109214,-0.00401754586185366,1,14.9762586805556,29.9
0.4,11.7953909078335,11.6901628065675,6.95104790964754,-0.00401194144459982,1,14.93125,29.9
0.433333333333333,11.7945543929588,11.9217960910276,6.94704049529051,-0.00400741435702656,1,14.8866753472222,29.9
0.466666666666667,11.7936900178005,12.1532957554697,6.94303676787388,-0.00400372741662913,1,14.8425347222222,29.9
0.5,11.7928015239304,12.3846619219344,6.93903604584775,-0.00400072202613178,1,14.798828125,29.9
0.533333333333333,11.7918903435271,12.6158946841306,6.93503778246067,-0.00399826338707943,1,14.7555555555556,29.9
0.566666666666667,11.7909564288747,12.846994114049,6.93104155229926,-0.00399623016140982,1,14.7127170138889,29.9
0.6,11.7899987598987,13.0779602672494,6.92704703492494,-0.00399451737431811,1,14.6703125,29.9
0.633333333333333,11.789015640916,13.3087931868925,6.92305399556143,-0.00399303936351814,1,14.6283420138889,29.9
0.666666666666667,11.7880049007513,13.5394929068158,6.91906226562203,-0.00399172993939789,1,14.5868055555556,29.9
0.7,11.7869640785373,13.7700594539961,6.91507172516465,-0.00399054045738012,1,14.545703125,29.9
0.733333333333333,11.7858906322148,14.0004928506625,6.91108228829841,-0.00398943686623987,1,14.5050347222222,29.9
0.766666666666667,11.7847821655459,14.2307931161941,6.90709389186036,-0.00398839643805005,1,14.4648003472222,29.9
0.8,11.7836366431905,14.4609602688098,6.90310648726835,-0.0039874045920083,1,14.425,29.9
0.833333333333333,11.7824525556194,14.6909943269758,6.89912003522984,-0.00398645203851089,1,14.3856336805556,29.9
0.866666666666667,11.7812290038523,14.9208953104258,6.89513450286303,-0.00398553236680677,1,14.3467013888889,29.9
0.9,11.7799656920227,15.1506632407154,6.8911498626752,-0.00398464018782985,1,14.308203125,29.9
0.933333333333333,11.7786628362372,15.380298141303,6.8871660927099,-0.00398376996530292,1,14.2701388888889,29.9
0.966666666666667,11.777321153501,15.60977097196,6.88143927684901,-0.00572681586089274,1,14.2325086805556,29.9
1,11.7759419845233,15.838966229268,6.87052543407298,-0.0109138427760263,1,14.1953125,29.9
1.03333333333333,11.7745273256024,16.0676532574303,6.85095928682088,-0.0195661472520987,3,14.1585503472222,29.9
1.06666666666667,11.7730806070422,16.2954859068831,6.81927605255463,-0.0316832342662501,3,14.1222222222222,29.9
1.1,11.7716084163001,16.5220316299372,6.77375551231318,-0.045520540241454,3,14.086328125,29.9
1.13333333333333,11.7701166523885,16.7468583116005,6.71614394666633,-0.0576115656468437,3,14.0508680555556,29.9
1.16666666666667,11.7686092732568,16.9696490760582,6.65160995805445,-0.0645339886118812,3,14.0158420138889,29.9
1.2,11.7670885190862,17.1902313396069,6.58364301927357,-0.0679669387808781,3,13.98125,29.9
1.23333333333333,11.7655557622872,17.4084903253306,6.51222244780305,-0.0714205714705205,3,13.9470920138889,29.9
1.26666666666667,11.764011783946,17.6243686922291,6.44081520150315,-0.0714072462999047,3,13.9133680555556,29.9
1.3,11.7624571305081,17.8378381848105,6.36769954084716,-0.0731156606559846,3,13.9133680555556,29.9
1.33333333333333,11.7608925693043,18.0488414986519,6.29285407136297,-0.0748454694841909,3,13.9133680555556,29.9
1.36666666666667,11.759318759536,18.2573500467881,6.21802302160983,-0.074831049753139,3,13.9133680555556,29.9
1.4,11.7577362359726,18.4633643166344,6.14320645616685,-0.0748165654429833,3,13.9133680555556,29.9
1.43333333333333,11.7561455730966,18.6668848001844,6.06840440271097,-0.0748020534558771,3,13.9133680555556,29.9
1.46666666666667,11.7545473701992,18.8679119919405,5.99361689151,-0.0747875112009719,3,13.9133680555556,29.9
1.5,11.7529424529975,19.0664176858109,5.91712186506666,-0.0764950264433413,3,13.9133680555556,29.9
1.53333333333333,11.751331482972,19.2624023818628,5.84236382653759,-0.0747580385290698,3,13.9133680555556,29.9
1.56666666666667,11.7497149718489,19.4558952803767,5.76762057563309,-0.0747432509044996,3,13.9133680555556,29.9
1.6,11.748093705436,19.6468968770604,5.69289216722641,-0.0747284084066786,3,13.9133680555556,29.9
1.63333333333333,11.7464685480259,19.835407666241,5.61817862270701,-0.0747135445194038,3,13.9133680555556,29.9
1.66666666666667,11.7448404387003,20.021428140681,5.54347991348784,-0.074698709219172,3,13.9133680555556,29.9
1.7,11.7432103749536,20.2049587913422,5.46879595583782,-0.0746839576500156,3,13.9133680555556,29.9
1.73333333333333,11.7415796147614,20.3859714055252,5.39240449663823,-0.0763914591995887,3,13.9133680555556,29.9
1.76666666666667,11.739949657506,20.564409070598,5.31430555556921,-0.0780989410690189,3,13.9133680555556,29.9
1.8,11.7383224714629,20.7401571119096,5.23103312666142,-0.083272428907792,3,13.9133680555556,29.9
1.83333333333333,11.7367008710694,20.9130718080998,5.14430971288834,-0.0867234137730817,3,13.9133680555556,29.9
1.86666666666667,11.7350890101357,21.0830959389955,5.05760171096671,-0.0867080019216262,3,13.9133680555556,29.9
1.9,11.7334901239721,21.2502300555537,4.97090924980663,-0.0866924611600792,3,13.9133680555556,29.9
1.93333333333333,11.731906412137,21.4144747027772,4.88423243651061,-0.0866768132960205,3,13.9133680555556,29.9
1.96666666666667,11.7303392314475,21.5758304191751,4.79757135353815,-0.0866610829724621,3,13.9133680555556,29.9
2,11.7287893140371,21.7342977370798,4.71092604966245,-0.0866453038757058,3,13.9133680555556,29.9
2.03333333333333,11.7272569803307,21.8898761330576,4.62420470561111,-0.0867213440513375,3,13.9133680555556,29.9
2.06666666666667,11.725742590554,22.0425324919248,4.53561038466276,-0.0885943209483502,3,13.9133680555556,29.9
2.1,11.7242463797603,22.1922342489061,4.44693284592651,-0.0886775387362446,3,13.9133680555556,29.9
2.13333333333333,11.7227685419395,22.3389504991318,4.35648268694941,-0.0904501589771085,3,13.9133680555556,29.9
2.16666666666667,11.7213098295444,22.4825935044365,4.26253963044299,-0.0939430565064185,3,13.9133680555556,29.9
2.2,11.7198713495107,22.6230475047105,4.16514279072623,-0.0973968397167591,3,13.9133680555556,29.9
2.23333333333333,11.7184540765736,22.7602259396843,4.06600519145727,-0.0991375992689543,3,13.9133680555556,29.9
2.26666666666667,11.7170591519524,22.8940426123555,3.96343566818563,-0.102569523271641,3,13.9133680555556,29.9
2.3,11.7156876260428,23.0244406593968,3.86088539370482,-0.102550274480817,3,13.9133680555556,29.9
2.33333333333333,11.7143404708343,23.151391750162,3.7566152235563,-0.104270170148514,3,13.9133680555556,29.9
2.36666666666667,11.7130185517534,23.2748967600391,3.65411662407989,-0.102498599476416,3,13.9133680555556,29.9
2.4,11.7117225958043,23.3949857262902,3.55164791509074,-0.102468708989143,3,13.9133680555556,29.9
2.43333333333333,11.7104537053148,23.5116596871527,3.44921073420909,-0.102437180881657,3,13.9133680555556,29.9
2.46666666666667,11.7092130232353,23.6249197267956,3.34680621866622,-0.102404515542864,3,13.9133680555556,29.9
2.5,11.7080019654211,23.7347378958001,3.24269121869256,-0.104114999973665,3,13.9133680555556,29.9
2.53333333333333,11.7068218835493,23.8410862691867,3.13861040933153,-0.10408080936103,3,13.9133680555556,29.9
2.56666666666667,11.7056737358385,23.9439660037694,3.0345642199981,-0.10404618933343,3,13.9133680555556,29.9
2.6,11.7045586429105,24.0433495646983,2.92883077528723,-0.105733444710868,3,13.9133680555556,29.9
2.63333333333333,11.703478479866,24.139122959145,2.81794434973694,-0.110886425550293,3,13.9133680555556,29.9
2.66666666666667,11.7024350287425,24.2311718497363,2.70534998800487,-0.112594361732066,3,13.9133680555556,29.9
2.7,11.7014291204007,24.3194683870129,2.59279217643108,-0.112557811573785,3,13.9133680555556,29.9
2.73333333333333,11.7004612460581,24.4040137995435,2.48027119889911,-0.112520977531976,3,13.9133680555556,29.9
2.76666666666667,11.6995318806694,24.4848093232844,2.36778720251983,-0.112483996379283,3,13.9133680555556,29.9
2.8,11.6986414965643,24.5618561977035,2.2553402397282,-0.112446962791623,3,13.9133680555556,29.9
2.83333333333333,11.6977905514466,24.6351572124789,2.14311600967598,-0.112224230052221,3,13.9133680555556,29.9
2.86666666666667,11.6969792897669,24.7047353176572,2.03216776021906,-0.110948249456917,3,13.9133680555556,29.9
2.9,11.696207560325,24.7706497794068,1.92335655760486,-0.108811202614203,3,13.9133680555556,29.9
2.93333333333333,11.6954750089872,24.8329764317315,1.81689601252711,-0.10646054507775,3,13.9133680555556,29.9
2.96666666666667,11.6947812121797,24.8917938726194,1.71277901340275,-0.104116999124361,3,13.9133680555556,29.9
3,11.6941257204323,24.9471786521406,1.61090800524404,-0.101871008158706,3,13.9133680555556,29.9
3.03333333333333,11.693508064203,24.9992044974614,1.51122274345184,-0.0996852617922048,3,13.9133680555556,29.9
3.06666666666667,11.6929277465376,25.0479431735423,1.41365087245308,-0.0975718709987559,3,13.9133680555556,29.9
3.1,11.6923842532198,25.0934639919529,1.31813196584992,-0.0955189066031648,3,13.9133680555556,29.9
3.13333333333333,11.6918770511128,25.1358345626385,1.22461099105752,-0.0935209747924008,3,13.9133680555556,29.9
3.16666666666667,11.6914052846078,25.1751493200852,1.13476120446045,-0.0898497865970642,3,13.9133680555556,29.9
3.2,11.6909680913111,25.2115008432819,1.04680794405403,-0.0879532604064204,3,13.9133680555556,29.9
3.23333333333333,11.690564583599,25.2449818276561,0.962529459594205,-0.0842784844598291,3,13.9133680555556,29.9
3.26666666666667,11.6901935131377,25.2757160974542,0.882000217303074,-0.0805292422911312,3,13.9133680555556,29.9
3.3,11.68985360396,25.3038280926623,0.805162726467486,-0.0768374908355871,3,13.9133680555556,29.9
3.33333333333333,11.689543600983,25.3294385001904,0.731872482622709,-0.0732902438447772,3,13.9133680555556,29.9
3.36666666666667,11.689262276651,25.3526637258231,0.662024087466197,-0.0698483951565123,3,13.9133680555556,29.9
3.4,11.6890084240039,25.3736166209687,0.595521715202921,-0.0665023722632758,3,13.9133680555556,29.9
3.43333333333333,11.6887808349441,25.3924085707593,0.53235843598417,-0.0631632792187515,3,13.9133680555556,29.9
3.46666666666667,11.6885786062954,25.4091218732427,0.47079223550156,-0.0615662004826095,3,13.9133680555556,29.9
3.5,11.688400826926,25.4238383535879,0.412535289675923,-0.058256945825637,3,13.9133680555556,29.9
3.53333333333333,11.688246277198,25.4366668169411,0.357489363227348,-0.0550459264485746,3,13.9133680555556,29.9
3.56666666666667,11.6881137653974,25.447712694474,0.305559511676806,-0.0519298515505427,3,13.9133680555556,29.9
3.6,11.6880018052879,25.4571073957094,0.258398558741868,-0.0471609529349375,3,13.9133680555556,29.9
3.63333333333333,11.6879083001234,25.4650370065174,0.217632467235858,-0.0407660915060106,3,13.9133680555556,29.9
3.66666666666667,11.6878299083448,25.4717996678872,0.188370425591656,-0.0292620416442017,3,13.9133680555556,29.9
3.7,11.6877623483888,25.4777779103523,0.17054765915925,-0.017822766432406,5,13.9133680555556,29.9
3.73333333333333,11.6877007291538,25.48340857037,0.167482376297809,-0.00306528286144067,5,13.9133680555556,29.9
3.76666666666667,11.6876386230866,25.4892662287344,0.184119575711857,0.0166371994140481,5,13.9133680555556,29.9
3.8,11.687568733147,25.496002087009,0.220114291106275,0.0359947153944174,4,13.9133680555556,29.9
3.83333333333333,11.6874857716835,25.5040821595672,0.264724754003435,0.0446104628971601,4,13.9133680555556,29.9
3.86666666666667,11.6873880228127,25.5136441661587,0.309012179221187,0.0442874252177524,4,13.9133680555556,29.9
3.9,11.6872753737894,25.5246743171428,0.352808368163179,0.0437961889419918,4,13.9133680555556,29.9
3.93333333333333,11.6871476864618,25.537154103739,0.395993225374834,0.0431848572116552,4,13.9133680555556,29.9
3.96666666666667,11.6870047809978,25.5510616840588,0.438481993172627,0.0424887677977929,4,13.9133680555556,29.9
4,11.6868464284458,25.5663728920115,0.480214336031264,0.0417323428586367,4,13.9133680555556,29.9
4.03333333333333,11.686672355261,25.5830616068287,0.521127358297197,0.0409130222659336,4,13.9133680555556,29.9
4.06666666666667,11.6864822571743,25.6010997178735,0.561169406196567,0.0400420478993695,4,13.9133680555556,29.9
4.1,11.6862758103238,25.620457750107,0.600310231273662,0.0391408250770956,4,13.9133680555556,29.9
4.13333333333333,11.6860526675101,25.6411054541062,0.63853520956128,0.0382249782876178,4,13.9133680555556,29.9
4.16666666666667,11.6858124179659,25.6630122340278,0.675840834878047,0.0373056253167665,4,13.9133680555556,29.9
4.2,11.6855546634427,25.6861475323116,0.712240295427588,0.0363994605495409,4,13.9133680555556,29.9
4.23333333333333,11.6852790555098,25.7104818659622,0.747786012303672,0.0355457168760848,4,13.9133680555556,29.9
4.26666666666667,11.684985316568,25.7359875802056,0.782530744148865,0.0347447318451929,4,13.9133680555556,29.9
4.3,11.6846732689143,25.7626385982748,0.816516998613825,0.0339862544649596,4,13.9133680555556,29.9
4.33333333333333,11.684342788684,25.790410143753,0.849779591536134,0.0332625929223089,4,13.9133680555556,29.9
4.36666666666667,11.6839935702108,25.819278530461,0.882347657409061,0.0325680658729267,4,13.9133680555556,29.9
4.4,11.6836252350179,25.8492210029649,0.914245373989129,0.0318977165800686,4,13.9133680555556,29.9
4.43333333333333,11.683237546096,25.8802152849347,0.945467321979579,0.0312219479904501,4,13.9133680555556,29.9
4.46666666666667,11.682830481054,25.912238283186,0.975978096188053,0.0305107742084735,4,13.9133680555556,29.9
4.5,11.6824042440154,25.9452659646037,1.00575754598605,0.0297794497979976,4,13.9133680555556,29.9
4.53333333333333,11.6819592600843,25.9792738487336,1.03479757240093,0.0290400264148793,4,13.9133680555556,29.9
4.56666666666667,11.6814961609417,26.0142373176884,1.06309851890327,0.0283009465023398,4,13.9133680555556,29.9
4.6,11.6810157483121,26.0501329543887,1.09078373703471,0.02768521813144,4,13.9133680555556,29.9
4.63333333333333,11.6805188601232,26.0869476175861,1.118347121392,0.0275633843572856,4,13.9133680555556,29.9
4.66666666666667,11.6800062105298,26.1246889205318,1.14652117385632,0.0281740524643252,4,13.9133680555556,29.9
4.7,11.6794782663971,26.163391679536,1.17619542116005,0.0296742473037264,4,13.9133680555556,29.9
4.73333333333333,11.6789351412354,26.2031222282166,1.20836434025492,0.0321689190948728,4,13.9133680555556,29.9
4.76666666666667,11.6783765032089,26.2439811096167,1.24407680084955,0.0357124605946264,4,13.9133680555556,29.9
4.8,11.6778015014685,26.286103989981,1.28438369851436,0.0403068976648158,4,13.9133680555556,29.9
4.83333333333333,11.6772087157432,26.3296605863371,1.33024776311191,0.0458640645975517,4,13.9133680555556,29.9
4.86666666666667,11.6765961712274,26.37484823491,1.38233919905821,0.0520914359462925,4,13.9133680555556,29.9
4.9,11.6759614097045,26.4218812252801,1.44101649128602,0.0586772922278123,4,13.9133680555556,29.9
4.93333333333333,11.675301554346,26.4709816374883,1.50639740827182,0.0653809169858011,4,13.9133680555556,29.9
4.96666666666667,11.6746133719522,26.5223716950732,1.5783676228687,0.0719702145968826,4,13.9133680555556,29.9
5,11.6738933579476,26.5762658439806,1.65658222886713,0.0782146059984292,4,13.9133680555556,29.9
5.03333333333333,11.6731378346276,26.6328637268402,1.74050507578237,0.083922846915238,4,13.9133680555556,29.9
5.06666666666667,11.6723430570493,26.692344776557,1.82947103513635,0.0889659593539849,4,13.9133680555556,29.9
5.1,11.6715053209905,26.7548649400291,1.92274527751244,0.0932742423760871,4,13.9133680555556,29.9
5.13333333333333,11.6706210741637,26.8205551811379,2.01957002322828,0.0968247457158418,4,13.9133680555556,29.9
5.16666666666667,11.6696870287889,26.8895213374285,2.11920128138933,0.0996312581610508,4,13.9133680555556,29.9
5.2,11.6687005034765,26.9618451133209,2.22093832628826,0.101737044898931,4,13.9133680555556,29.9
5.23333333333333,11.6676604343887,27.0375857924573,2.32413611118206,0.103197784893795,4,13.9133680555556,29.9
5.26666666666667,11.6665673122732,27.1167825919612,2.42825554924703,0.104119438064974,4,13.9133680555556,29.9
5.3,11.6654222723017,27.1994598567484,2.53293135457176,0.104675805324723,4,13.9133680555556,29.9
5.33333333333333,11.6642274773687,27.2856310400769,2.63786348869573,0.104932134123972,4,13.9133680555556,29.9
5.36666666666667,11.6629848329385,27.3753002959335,2.74279314792075,0.104929659225018,4,13.9133680555556,29.9
5.4,11.6616954699797,27.4684637149067,2.84749516103375,0.104702013113004,4,13.9133680555556,29.9
5.43333333333333,11.6603596958801,27.5651103571677,2.95177311474287,0.104277953709121,4,13.9133680555556,29.9
5.46666666666667,11.6589770574043,27.6652229593162,3.05543303698376,0.103659922240888,4,13.9133680555556,29.9
5.5,11.6575465047989,27.7687768974597,3.15823597991651,0.102802942932747,4,13.9133680555556,29.9
5.53333333333333,11.6560665884059,27.8757403503313,3.26000125319372,0.101765273277214,4,13.9133680555556,29.9
5.56666666666667,11.6545356450439,27.9860766164202,3.3606130293415,0.100611776147776,4,13.9133680555556,29.9
5.6,11.6529519817099,28.0997459344249,3.46000073376293,0.0993877044214337,4,13.9133680555556,29.9
5.63333333333333,11.6513140374329,28.2167067511191,3.55812557673466,0.0981248429717252,4,13.9133680555556,29.9
5.66666666666667,11.6496205068603,28.3369166721049,3.65497563595476,0.0968500592201043,4,13.9133680555556,29.9
5.7,11.6478704216601,28.4603328583128,3.75051496024967,0.0955393242949145,4,13.9133680555556,29.9
5.73333333333333,11.6460632127486,28.5869100466132,3.84465640209935,0.0941414418496715,4,13.9133680555556,29.9
5.76666666666667,11.644198693267,28.7166010870049,3.93737695914034,0.0927205570409915,4,13.9133680555556,29.9
5.8,11.6422769842671,28.849358899144,4.02869917452097,0.091322215380631,4,13.9133680555556,29.9
5.83333333333333,11.6402984242541,28.9851375650274,4.11866533956494,0.0899661650439674,4,13.9133680555556,29.9
5.86666666666667,11.6382634755056,29.1238925803279,4.20731754006412,0.0886522004991832,4,13.9133680555556,29.9
5.9,11.636172631554,29.2655809281236,4.29470346776502,0.0873859277009013,4,13.9133680555556,29.9
5.93333333333333,11.6340263339485,29.4101612342739,4.38087290391449,0.0861694361494667,4,13.9133680555556,29.9
5.96666666666667,11.6318249110849,29.5575937012661,4.46586973231677,0.0849968284022804,4,13.9133680555556,29.9
6,11.6295685444443,29.7078397899968,4.54972387456543,0.0838541422486623,4,13.9133680555556,29.9
6.03333333333333,11.6272572768903,29.8608606703099,4.63235103391102,0.0826271593455878,4,13.9133680555556,29.9
6.06666666666667,11.6248910894807,30.0166124049527,4.71360799393926,0.0812569600282416,4,13.9133680555556,29.9
6.1,11.622469869532,30.1750500791431,4.79353553562355,0.0799275416842882,4,13.9133680555556,29.9
6.13333333333333,11.6199934422311,30.3361280449833,4.87203714307557,0.0785016074520204,4,13.9133680555556,29.9
6.16666666666667,11.6174616502709,30.4997969583589,4.94900996103183,0.0769728179562641,4,13.9133680555556,29.9
6.2,11.6148743822046,30.666004204882,5.02435592874387,0.0753459677120363,4,13.9133680555556,29.9
