Time,x_ego,y_ego,velocity,acceleration,action,x_ped,y_ped
0,11.8,15.9,5,0,1,15.5,29.9
0.0333333333333333,11.7999993820357,16.0666076888418,4.99642261466935,-0.00357738533064911,1,15.4972222222222,29.9
0.0666666666666667,11.7999954176174,16.2330926531086,4.9926475711652,-0.00377504350415148,1,15.4888888888889,29.9
0.1,11.7999857492211,16.3994492968689,4.98873131359086,-0.00391625757433989,1,15.475,29.9
0.133333333333333,11.799969018556,16.5656736287617,4.98471487456837,-0.00401643902249393,1,15.4555555555556,29.9
0.166666666666667,11.7999446938142,16.7317628763953,4.98063143493591,-0.00408343963245716,1,15.4305555555556,29.9
0.2,11.7999128576344,16.8977152909751,4.97650926576336,-0.00412216917255126,1,15.4,29.9
0.233333333333333,11.7998740001126,17.0635299809218,4.97237145376958,-0.00413781199377894,1,15.3666666666667,29.9
0.266666666666667,11.799828843357,17.2292067371882,4.96823595313403,-0.00413550063554879,1,15.3333333333333,29.9
0.3,11.7997782077794,17.3947458754961,4.96411644197612,-0.00411951115790732,1,15.3,29.9
0.333333333333333,11.7997241766246,17.5601481053609,4.96002288464168,-0.00409355733444272,1,15.2666666666667,29.9
0.366666666666667,11.7996730765206,17.7254144145501,4.95596203711106,-0.00406084753062164,1,15.2333333333333,29.9
0.4,11.7996303877041,17.8905459675238,4.95193775233896,-0.00402428477210126,1,15.2,29.9
0.433333333333333,11.7995994333255,18.0555440019049,4.94795049948492,-0.00398725285404122,1,15.1666666666667,29.9
0.466666666666667,11.7995817097193,18.220409697624,4.94399621537485,-0.00395428411006549,1,15.1333333333333,29.9
0.5,11.7995773075725,18.3851440194548,4.94006627265746,-0.00392994271739244,1,15.1,29.9
0.533333333333333,11.7995853347119,18.5497475935921,4.93614936240252,-0.00391691025493923,1,15.0666666666667,29.9
0.566666666666667,11.7996042873592,18.7142206519799,4.93223334068799,-0.00391602171452732,1,15.0333333333333,29.9
0.6,11.7996323484821,18.8785630213443,4.92830610444304,-0.00392723624494895,1,15,29.9
0.633333333333333,11.7996676141611,19.0427741305578,4.92435588341835,-0.00395022102469245,1,14.9666666666667,29.9
0.666666666666667,11.7997082602867,19.206853021935,4.92037121930661,-0.00398466411174425,1,14.9333333333333,29.9
0.7,11.7997526639849,19.3707983586516,4.91634077106456,-0.00403044824204635,1,14.9,29.9
0.733333333333333,11.799799490328,19.5346084551618,4.91225686646046,-0.00408390460409436,1,14.8666666666667,29.9
0.766666666666667,11.7998477490045,19.6982816355508,4.9081280894577,-0.00412877700276848,1,14.8333333333333,29.9
0.8,11.7998968208522,19.861816625346,4.90396730851923,-0.00416078093846917,1,14.8,29.9
0.833333333333333,11.799946452335,20.0252125252116,4.89978403804701,-0.00418327047221378,1,14.7666666666667,29.9
0.866666666666667,11.7999967176012,20.1884687054468,4.89558509710466,-0.00419894094235396,1,14.7333333333333,29.9
0.9,11.8000479517068,20.3515847295781,4.89137537278909,-0.0042097243155661,1,14.7,29.9
0.933333333333333,11.8001006632706,20.514560299604,4.88715836743502,-0.00421700535406888,1,14.6666666666667,29.9
0.966666666666667,11.8001554385525,20.6773952167578,4.88293659083888,-0.00422177659614054,1,14.6333333333333,29.9
1,11.8002128504381,20.8400893533925,4.87871184136872,-0.00422474947016394,1,14.6,29.9
1.03333333333333,11.8002733845798,21.0026426328369,4.87448540743225,-0.00422643393646815,1,14.5666666666667,29.9
1.06666666666667,11.8003373912753,21.165055014962,4.87025821189152,-0.00422719554073225,1,14.5333333333333,29.9
1.1,11.8004050117796,21.3270954131811,4.85216682697301,-0.0180913849185105,3,14.5,29.9
1.13333333333333,11.8004761432311,21.4881869192772,4.81332542166683,-0.0388414053061821,3,14.4666666666667,29.9
1.16666666666667,11.8005504844978,21.6475801674142,4.75027235919319,-0.0630530624736396,3,14.4333333333333,29.9
1.2,11.8006276215753,21.8045833684983,4.66992373350827,-0.0803486256849171,3,14.4,29.9
1.23333333333333,11.8007071250504,21.9587643323578,4.58093937476473,-0.0889843587435433,3,14.3666666666667,29.9
1.26666666666667,11.8007886090046,22.1099795093309,4.49197799877261,-0.0889613759921151,3,14.3333333333333,29.9
1.3,11.8008717190494,22.258201001088,4.4013202988794,-0.0906576998932094,3,14.3,29.9
1.33333333333333,11.8009561003607,22.4033432224224,4.3072245304919,-0.0940957683874988,3,14.2666666666667,29.9
1.36666666666667,11.8010414050304,22.545262888476,4.20797041696387,-0.0992541135280334,3,14.2333333333333,29.9
1.4,11.8011273009607,22.6837880769624,4.10355970781486,-0.104410709149006,3,14.2,29.9
1.43333333333333,11.8012135126065,22.8188333996602,3.99918214641243,-0.104377561402436,3,14.1666666666667,29.9
1.46666666666667,11.8012998181647,22.9503999857982,3.89483848782623,-0.104343658586194,3,14.1333333333333,29.9
1.5,11.8013860113397,23.0784889938411,3.79052919039716,-0.10430929742907,3,14.1,29.9
1.53333333333333,11.8014718987301,23.2031016015684,3.68625458646533,-0.104274603931838,3,14.0666666666667,29.9
1.56666666666667,11.8015572992885,23.3242389989654,3.5820149960721,-0.104239590393228,3,14.0333333333333,29.9
1.6,11.801642059895,23.4419314490595,3.47955469712085,-0.102460298951247,3,14,29.9
1.63333333333333,11.8017260433639,23.5562092138764,3.37712992532919,-0.102424771791666,3,13.9666666666667,29.9
1.66666666666667,11.8018091299719,23.6671021879363,3.27646309430285,-0.100666831026337,3,13.9333333333333,29.9
1.7,11.8018912321157,23.7746689602318,3.1775542234559,-0.098908870846949,3,13.9,29.9
1.73333333333333,11.8019722616142,23.8789394035843,3.07868099102147,-0.0988732324344292,3,13.8666666666667,29.9
1.76666666666667,11.8020521241719,23.9799146757284,2.97984319137241,-0.0988377996490657,3,13.8333333333333,29.9
1.8,11.8021307117208,24.0775672219669,2.87931834473153,-0.100524846640878,3,13.8,29.9
1.83333333333333,11.8022078948662,24.1718407805222,2.77710618436921,-0.102212160362321,3,13.7666666666667,29.9
1.86666666666667,11.8022835506498,24.2627077936333,2.67492859525278,-0.102177589116428,3,13.7333333333333,29.9
1.9,11.802357542563,24.3501403409682,2.57104124129799,-0.10388735395479,3,13.7,29.9
1.93333333333333,11.8024297212379,24.4341105045803,2.46718788853779,-0.103853352760196,3,13.6666666666667,29.9
1.96666666666667,11.8024999272796,24.5145907319417,2.36164621786698,-0.105541670670812,3,13.6333333333333,29.9
2,11.802567998139,24.5915534736834,2.25613849405314,-0.105507723813838,3,13.6,29.9
2.03333333333333,11.8026337754419,24.6649726022785,2.14911377054077,-0.107024723512371,3,13.5666666666667,29.9
2.06666666666667,11.8026971025675,24.7348118727268,2.04155775157771,-0.107556018963066,3,13.5333333333333,29.9
2.1,11.8027578580762,24.8010707757892,1.93436339451665,-0.107194357061055,3,13.5,29.9
2.13333333333333,11.8028159654022,24.8637950168406,1.82948329314487,-0.10488010137178,3,13.4666666666667,29.9
2.16666666666667,11.802871364033,24.9230329649429,1.72517727395468,-0.104306019190193,3,13.4333333333333,29.9
2.2,11.8029239858969,24.9788028583953,1.62138396292698,-0.103793311027697,3,13.4,29.9
2.23333333333333,11.802973792698,25.0311494258008,1.51977253312705,-0.101611429799932,3,13.3666666666667,29.9
2.26666666666667,11.8030207542558,25.0801158677592,1.41856586210128,-0.101206671025773,3,13.3333333333333,29.9
2.3,11.8030648466475,25.1257434729677,1.31943936618319,-0.0991264959180893,3,13.3,29.9
2.33333333333333,11.8031060506571,25.1680719309237,1.22060839091967,-0.0988309752635164,3,13.2666666666667,29.9
2.36666666666667,11.8031443508358,25.20713921286,1.12376344555906,-0.0968449453606093,3,13.2333333333333,29.9
2.4,11.8031797140439,25.2429539109876,1.02546524418788,-0.0982982013711811,3,13.2,29.9
2.43333333333333,11.803212112167,25.2755266848127,0.929267543151114,-0.0961977010367653,3,13.1666666666667,29.9
2.46666666666667,11.8032415657847,25.3049292926484,0.835259835766963,-0.0940077073841513,3,13.1333333333333,29.9
2.5,11.8032680997957,25.3312341065434,0.743376552289802,-0.0918832834771611,3,13.1,29.9
2.53333333333333,11.8032917405184,25.3545099582234,0.653504318357478,-0.0898722339323236,3,13.0666666666667,29.9
2.56666666666667,11.8033125162797,25.3748228567861,0.56560276500411,-0.0879015533533677,3,13.0333333333333,29.9
2.6,11.8033304597288,25.3922391590525,0.47971423396238,-0.0858885310417304,3,13,29.9
2.63333333333333,11.8033456082564,25.40682638667,0.39585875923478,-0.0838554747276001,3,12.9666666666667,29.9
2.66666666666667,11.8033580025101,25.4186516918667,0.313989122417906,-0.0818696368168737,3,12.9333333333333,29.9
2.7,11.8033676844913,25.4277799161688,0.234028158703866,-0.0799609637140397,3,12.9,29.9
2.73333333333333,11.8033747413133,25.4343310073493,0.159378003403759,-0.074650155300107,3,12.8666666666667,29.9
2.76666666666667,11.8033792854477,25.4384548360915,0.0884424972071847,-0.0709355061965747,3,12.8333333333333,29.9
2.8,11.8033813895614,25.4402474085148,0.0196942069288405,-0.0687482902783442,3,12.8,29.9
2.83333333333333,11.8033813033953,25.4400328439799,0.0153169783126441,-0.00437722861619646,5,12.7666666666667,29.9
2.86666666666667,11.8033803559193,25.4395316917142,0.00320951299242302,-0.012107465320221,5,12.7333333333333,29.9
2.9,11.8033803559193,25.4395316917142,0.00367770168967282,0.000468188697249798,5,12.7,29.9
2.93333333333333,11.8033803559193,25.4395316917142,0.00430435445650057,0.000626652766827746,5,12.6666666666667,29.9
2.96666666666667,11.8033803559193,25.4395316917142,0.00502746398832076,0.000723109531820198,5,12.6333333333333,29.9
3,11.8033803559193,25.4395316917142,0.00576453213121109,0.000737068142890329,5,12.6,29.9
3.03333333333333,11.8033803559193,25.4395316917142,0.00642592194327802,0.000661389812066929,5,12.5666666666667,29.9
3.06666666666667,11.8033803559193,25.4395316917142,0.00692675597143482,0.000500834028156794,5,12.5333333333333,29.9
3.1,11.8033803559193,25.4395316917142,0.00719654527162604,0.000269789300191225,5,12.5,29.9
3.13333333333333,11.8033803559193,25.4395316917142,0.00718605809220133,-1.0487179424706e-05,5,12.4666666666667,29.9
3.16666666666667,11.8033803559193,25.4395316917142,0.00687124508451667,-0.000314813007684662,5,12.4333333333333,29.9
3.2,11.8033803559193,25.4395316917142,0.00625430903657199,-0.000616936047944684,5,12.4,29.9
3.23333333333333,11.8033803559193,25.4395316917142,0.00536222720315802,-0.000892081833413967,5,12.3666666666667,29.9
3.26666666666667,11.8033803559193,25.4395316917142,0.0042431951965236,-0.00111903200663443,5,12.3333333333333,29.9
3.3,11.8033803559193,25.4395316917142,0.00296156063893884,-0.00128163455758475,5,12.3,29.9
3.33333333333333,11.8033803559193,25.4395316917142,0.00159185479872919,-0.00136970584020965,5,12.2666666666667,29.9
3.36666666666667,11.8033803559193,25.4395316917142,0.000212517591002884,-0.00137933720772631,5,12.2333333333333,29.9
3.4,11.8033803559193,25.4395316917142,0.00110014519339671,0.000887627602393826,5,12.2,29.9
3.43333333333333,11.8033803559193,25.4395316917142,0.00227732286468327,0.00117717767128656,5,12.1666666666667,29.9
3.46666666666667,11.8033803559193,25.4395316917142,0.00326203996678467,0.000984717102101394,5,12.1333333333333,29.9
3.5,11.8033803559193,25.4395316917142,0.00401225695267421,0.000750216985889542,5,12.1,29.9
3.53333333333333,11.8033803559193,25.4395316917142,0.0045026328703174,0.00049037591764319,5,12.0666666666667,29.9
3.56666666666667,11.8033803559193,25.4395316917142,0.00472496256488129,0.000222329694563896,5,12.0333333333333,29.9
3.6,11.8033803559193,25.4395316917142,0.00468739616308571,-3.75664017955796e-05,5,12,29.9
3.63333333333333,11.8033803559193,25.4395316917142,0.00441262348019642,-0.000274772682889298,5,11.9666666666667,29.9
3.66666666666667,11.8033803559193,25.4395316917142,0.00393525799463017,-0.000477365485566245,5,11.9333333333333,29.9
3.7,11.8033803559193,25.4395316917142,0.00329868365968052,-0.000636574334949654,5,11.9,29.9
3.73333333333333,11.8033803559193,25.4395316917142,0.0025516342694432,-0.000747049390237316,5,11.8666666666667,29.9
3.76666666666667,11.8033803559193,25.4395316917142,0.00174476194280975,-0.000806872326633449,5,11.8333333333333,29.9
3.8,11.8033803559193,25.4395316917142,0.000927422103051843,-0.00081733983975791,5,11.8,29.9
3.83333333333333,11.8033803559193,25.4395316917142,0.000144861278640016,-0.000782560824411827,5,11.7666666666667,29.9
3.86666666666667,11.8033803559193,25.4395316917142,0.000564054472103904,0.000419193193463888,5,11.7333333333333,29.9
3.9,11.8033803559193,25.4395316917142,0.00116848441546681,0.000604429943362907,5,11.7,29.9
3.93333333333333,11.8033803559193,25.4395316917142,0.00164659615952746,0.000478111744060649,5,11.6666666666667,29.9
3.96666666666667,11.8033803559193,25.4395316917142,0.00198589865620222,0.000339302496674756,5,11.6333333333333,29.9
4,11.8033803559193,25.4395316917142,0.00218297731781134,0.000197078661609125,5,11.6,29.9
4.03333333333333,11.8033803559193,25.4395316917142,0.00224271526294692,5.97379451355781e-05,5,11.5666666666667,29.9
4.06666666666667,11.8033803559193,25.4395316917142,0.00217710718104006,-6.56080819068602e-05,5,11.5333333333333,29.9
4.1,11.8033803559193,25.4395316917142,0.0020037851358832,-0.000173322045156863,5,11.5,29.9
4.13333333333333,11.8033803559193,25.4395316917142,0.00174437924577709,-0.000259405890106109,5,11.4666666666667,29.9
4.16666666666667,11.8033803559193,25.4395316917142,0.00142283155406647,-0.000321547691710611,5,11.4333333333333,29.9
4.2,11.8033803559193,25.4395316917142,0.00106376991286343,-0.000359061641203049,5,11.4,29.9
4.23333333333333,11.8033803559193,25.4395316917142,0.000691031975342877,-0.000372737937520548,5,11.3666666666667,29.9
4.26666666666667,11.8033803559193,25.4395316917142,0.000326409173626502,-0.000364622801716375,5,11.3333333333333,29.9
4.3,11.8033803559193,25.4395316917142,1.13414182401963e-05,-0.000315067755386306,5,11.3,29.9
4.33333333333333,11.8033803559193,25.4395316917142,0.000307191564466681,0.000295850146226485,5,11.2666666666667,29.9
4.36666666666667,11.8033803559193,25.4395316917142,0.000550237796770272,0.000243046232303591,5,11.2333333333333,29.9
4.4,11.8033803559193,25.4395316917142,0.000733812394474954,0.000183574597704681,5,11.2,29.9
4.43333333333333,11.8033803559193,25.4395316917142,0.000855338302417098,0.000121525907942144,5,11.1666666666667,29.9
4.46666666666667,11.8033803559193,25.4395316917142,0.000915968432285588,6.06301298684899e-05,5,11.1333333333333,29.9
4.5,11.8033803559193,25.4395316917142,0.000920057411115663,4.08897883007588e-06,5,11.1,29.9
4.53333333333333,11.8033803559193,25.4395316917142,0.000874517577266289,-4.55398338493742e-05,5,11.0666666666667,29.9
4.56666666666667,11.8033803559193,25.4395316917142,0.000788111169802218,-8.64064074640715e-05,5,11.0333333333333,29.9
4.6,11.8033803559193,25.4395316917142,0.000670727683265179,-0.000117383486537038,5,11,29.9
4.63333333333333,11.8033803559193,25.4395316917142,0.000532689864386365,-0.000138037818878815,5,10.9666666666667,29.9
4.66666666666667,11.8033803559193,25.4395316917142,0.000384124480332005,-0.000148565384054359,5,10.9333333333333,29.9
4.7,11.8033803559193,25.4395316917142,0.000234425480198644,-0.000149699000133362,5,10.9,29.9
4.73333333333333,11.8033803559193,25.4395316917142,9.18281686939198e-05,-0.000142597311504724,5,10.8666666666667,29.9
4.76666666666667,11.8033803559193,25.4395316917142,0.000135508311963374,4.36801432694544e-05,5,10.8333333333333,29.9
4.8,11.8033810255894,25.440399326019,0.0517215120506255,0.0515860037386622,4,10.8,29.9
4.83333333333333,11.803383013384,25.4429744536619,0.102688195614804,0.0509666835641784,4,10.7666666666667,29.9
4.86666666666667,11.8033863057186,25.4472359661286,0.152867212903716,0.0501790172889118,4,10.7333333333333,29.9
4.9,11.8033908857259,25.4531534658605,0.2020271496407,0.0491599367369848,4,10.7,29.9
4.93333333333333,11.8033967368385,25.4606901882172,0.250015401679418,0.047988252038718,4,10.6666666666667,29.9
4.96666666666667,11.8034038464943,25.4698062818395,0.296809718776592,0.0467943170971737,4,10.6333333333333,29.9
5,11.803412210209,25.4804629891932,0.342470150023955,0.0456604312473631,4,10.6,29.9
5.03333333333333,11.8034218326986,25.4926234853266,0.387048131980507,0.0445779819565513,4,10.5666666666667,29.9
5.06666666666667,11.8034327276525,25.5062525004049,0.430585392886771,0.0435372609062642,4,10.5333333333333,29.9
5.1,11.8034449171244,25.5213160213846,0.473115617048961,0.0425302241621898,4,10.5,29.9
5.13333333333333,11.8034584303172,25.5377808003723,0.514649056025606,0.0415334389766455,4,10.4666666666667,29.9
5.16666666666667,11.8034733016924,25.5556135746889,0.555182637752485,0.0405335817268788,4,10.4333333333333,29.9
5.2,11.8034895519112,25.574781055667,0.594720426011722,0.0395377882592371,4,10.4,29.9
5.23333333333333,11.8035071307138,25.5952501616482,0.633272246476351,0.0385518204646285,4,10.3666666666667,29.9
5.26666666666667,11.8035259626378,25.61698818786,0.670851793655499,0.0375795471791482,4,10.3333333333333,29.9
5.3,11.8035459647671,25.6399629665362,0.707481081331289,0.0366292876757904,4,10.3,29.9
5.33333333333333,11.8035670490828,25.6641436428443,0.74321799138105,0.0357369100497609,4,10.2666666666667,29.9
5.36666666666667,11.8035891252799,25.6895014879599,0.778123722248455,0.0349057308674053,4,10.2333333333333,29.9
5.4,11.8036121030653,25.7160096219228,0.81224729540173,0.0341235731532742,4,10.2,29.9
5.43333333333333,11.8036358945977,25.7436426635382,0.845628799593641,0.033381504191911,4,10.1666666666667,29.9
5.46666666666667,11.803660417055,25.7723764700409,0.878301764775268,0.0326729651816275,4,10.1333333333333,29.9
5.5,11.8036855958148,25.8021887737797,0.910388548563545,0.0320867837882768,4,10.1,29.9
5.53333333333333,11.8037113733082,25.8330673355909,0.942394599670702,0.0320060511071573,4,10.0666666666667,29.9
5.56666666666667,11.8037377216225,25.8650233070961,0.975208005813551,0.0328134061428483,4,10.0333333333333,29.9
5.6,11.8037646533858,25.8981029742224,1.01003824924511,0.0348302434315579,4,10,29.9
5.63333333333333,11.8037922303668,25.9323972659667,1.0483303758636,0.0382921266184943,4,9.96666666666667,29.9
5.66666666666667,11.803820566859,25.9680453518992,1.09146687173815,0.0431364958745506,4,9.93333333333333,29.9
5.7,11.8038498236794,26.0052270436265,1.14048959033751,0.0490227185993564,4,9.9,29.9
5.73333333333333,11.8038801989378,26.0441518169435,1.19615646958288,0.0556668792453676,4,9.86666666666667,29.9
5.76666666666667,11.8039119202852,26.0850504506507,1.25898599186742,0.0628295222845392,4,9.83333333333334,29.9
5.8,11.8039452363736,26.1281664517771,1.32920911224937,0.0702231203819499,4,9.8,29.9
5.83333333333333,11.8039804064328,26.1737459404089,1.40677358646158,0.077564474212209,4,9.76666666666667,29.9
5.86666666666667,11.8040176913227,26.2220303060962,1.4914509917481,0.0846774052865227,4,9.73333333333333,29.9
5.9,11.8040573448557,26.2732500756426,1.58281436534476,0.0913633735966666,4,9.7,29.9
5.93333333333333,11.8040996043513,26.327618523884,1.68026289693143,0.0974485315866691,4,9.66666666666667,29.9
5.96666666666667,11.8041446816723,26.3853263033168,1.78304325099983,0.102780354068398,4,9.63333333333333,29.9
6,11.8041927551301,26.446537090205,1.89028579203745,0.107242541037615,4,9.6,29.9
6.03333333333333,11.8042439616567,26.5113828201938,2.00097290991027,0.110687117872825,4,9.56666666666667,29.9
6.06666666666667,11.8042983925802,26.5799620030697,2.11414231963606,0.113169409725792,4,9.53333333333333,29.9
6.1,11.8043560949099,26.6523428018238,2.22893489668908,0.114792577053015,4,9.5,29.9
6.13333333333333,11.8044170751376,26.7285664971628,2.34459824854543,0.115663351856355,4,9.46666666666667,29.9
6.16666666666667,11.8044813055478,26.8086511250673,2.4604921738234,0.115893925277969,4,9.43333333333333,29.9
6.2,11.8045487335115,26.8925961652108,2.57616552052688,0.115673346703473,4,9.4,29.9
6.23333333333333,11.8046192945444,26.9803894437763,2.69133978042682,0.115174259899948,4,9.36666666666667,29.9
6.26666666666667,11.8046929232027,27.0720102061664,2.80577406629363,0.114434285866802,4,9.33333333333333,29.9
6.3,11.8047695602054,27.1674303399172,2.91926916674382,0.113495100450191,4,9.3,29.9
6.33333333333333,11.8048491570379,27.2666157581136,3.03166510157829,0.112395934834476,4,9.26666666666667,29.9
