Time,x_ego,y_ego,velocity,acceleration,action,x_ped,y_ped
0,11.8,15.9,5,0,1,15.5,29.9
0.0333333333333333,11.8000036768801,16.0666076888373,4.99642262416332,-0.00357737583668349,1,15.5,29.9
0.0666666666666667,11.8000272651208,16.233092652908,4.9926476857398,-0.00377493842351484,1,15.5,29.9
0.1,11.8000847919653,16.399449294975,4.98873173914628,-0.00391594659352013,1,15.5,29.9
0.133333333333333,11.8001843392367,16.5656736155049,4.98471525981276,-0.00401647933352578,1,15.5,29.9
0.166666666666667,11.8003290711902,16.73176275902,4.98062716410351,-0.00408809570924529,1,15.5,29.9
0.2,11.8005184960773,16.8977146900508,4.97648810754567,-0.0041390565578423,1,15.5,29.9
0.233333333333333,11.8007496976222,17.0635279618533,4.9723128680473,-0.00417523949836962,1,15.5,29.9
0.266666666666667,11.801018378768,17.2292015511246,4.96811204609544,-0.00420082195185678,1,15.5,29.9
0.3,11.8013196570638,17.3947347395032,4.96389326588599,-0.00421878020945599,1,15.5,29.9
0.333333333333333,11.8016486221426,17.5601270282588,4.95966202137674,-0.00423124450924917,1,15.5,29.9
0.366666666666667,11.8020007044846,17.7253780766361,4.95542227471906,-0.00423974665767357,1,15.5,29.9
0.4,11.8023719138382,17.8904876571783,4.95117688305996,-0.00424539165910254,1,15.5,29.9
0.433333333333333,11.802758994179,18.0554556233263,4.94692790539068,-0.00424897766928467,1,15.5,29.9
0.466666666666667,11.8031595212307,18.2202818859506,4.94267682417048,-0.00425108122020035,1,15.5,29.9
0.5,11.8035719486378,18.3849663964134,4.93842470549083,-0.00425211867964759,1,15.5,29.9
0.533333333333333,11.803995596775,18.5495091344218,4.93417231463342,-0.00425239085741236,1,15.5,29.9
0.566666666666667,11.8044305764686,18.7139100994056,4.92992019934093,-0.0042521152924806,1,15.5,29.9
0.6,11.8048776471432,18.8781693044853,4.92566874987219,-0.00425144946874045,1,15.5,29.9
0.633333333333333,11.8053380210154,19.0422867723401,4.92141824242231,-0.00425050744988553,1,15.5,29.9
0.666666666666667,11.8058131369004,19.2062625324488,4.91716887059204,-0.00424937183026497,1,15.5,29.9
0.7,11.8063044347058,19.3700966193026,4.91292076824727,-0.00424810234476958,1,15.5,29.9
0.733333333333333,11.8068131623045,19.5337890712697,4.90867402622813,-0.00424674201914588,1,15.5,29.9
0.766666666666667,11.8073402400419,19.6973399298647,4.90442870476441,-0.00424532146371437,1,15.5,29.9
0.8,11.8078861964836,19.8607492392326,4.9001848429412,-0.0042438618232099,1,15.5,29.9
0.833333333333333,11.8084511752081,20.0240170457173,4.89594246605272,-0.00424237688848095,1,15.5,29.9
0.866666666666667,11.8090349998583,20.1871433974438,4.89170159123376,-0.00424087481895885,1,15.5,29.9
0.9,11.8096372759796,20.3501283438864,4.88746223147658,-0.00423935975718237,1,15.5,29.9
0.933333333333333,11.8102575048769,20.5129719354403,4.88322439808778,-0.00423783338879868,1,15.5,29.9
0.966666666666667,11.8108951868486,20.6756742230243,4.87898810176593,-0.00423629632185651,1,15.5,29.9
1,11.8115498974844,20.8382352577557,4.87475335265859,-0.00423474910734178,1,15.5,29.9
1.03333333333333,11.8122213292517,21.0006550907185,4.87052015986202,-0.00423319279656109,1,15.5,29.9
1.06666666666667,11.812909299131,21.1629337728378,4.86628853080177,-0.0042316290602491,1,15.5,29.9
1.1,11.8136137297615,21.3250713548473,4.86205847080273,-0.00423005999904369,1,15.5,29.9
1.13333333333333,11.8143346152936,21.4870678873267,4.85782998299043,-0.00422848781230112,1,15.5,29.9
1.16666666666667,11.8150719836533,21.6489234207734,4.85360306852218,-0.00422691446824519,1,15.5,29.9
1.2,11.8158258647468,21.8106380056789,4.84937772705663,-0.00422534146555886,1,15.5,29.9
1.23333333333333,11.8165962702881,21.9722116925821,4.84515395733237,-0.00422376972425287,1,15.5,29.9
1.26666666666667,11.8173831866756,22.1336445320893,4.84093175772749,-0.0042221996048859,1,15.5,29.9
1.3,11.8181865787367,22.2949365748606,4.83671112669797,-0.00422063102952119,1,15.5,29.9
1.33333333333333,11.8190063999346,22.4560878715735,4.83249206303651,-0.00421906366145297,1,15.5,29.9
1.36666666666667,11.8198426040315,22.6170984728788,4.82827456594207,-0.00421749709443997,1,15.5,29.9
1.4,11.8206951540268,22.7779684293657,4.82405863493541,-0.00421593100666051,1,15.5,29.9
1.43333333333333,11.8215640259292,22.9386977915454,4.8198442696851,-0.00421436525031105,1,15.5,29.9
1.46666666666667,11.8224492069536,23.0992866098578,4.81563146981624,-0.00421279986885814,1,15.5,29.9
1.5,11.823350689463,23.2597349346974,4.81142023476233,-0.00421123505390941,1,15.5,29.9
1.53333333333333,11.8242684630174,23.4200428164494,4.80721056369578,-0.00420967106655024,1,15.5,29.9
1.56666666666667,11.825202507098,23.580210305525,4.80300245554411,-0.00420810815167538,1,15.5,29.9
1.6,11.8261521915254,23.740237455308,4.79879585466459,-0.00420660087951941,1,15.5,29.9
1.63333333333333,11.8271148289793,23.9001243297199,4.79459073544908,-0.00420511921550482,1,15.5,29.9
1.66666666666667,11.8280880593991,24.0598709920494,4.79038713904364,-0.00420359640544632,1,15.5,29.9
1.7,11.8290704751104,24.2194775014686,4.78618509752191,-0.00420204152172676,1,15.5,29.9
1.73333333333333,11.8300608815948,24.3789439164312,4.78198458432034,-0.00420051320156922,1,15.5,29.9
1.76666666666667,11.8310566641281,24.5382703033242,4.77778559404056,-0.00419899027978143,1,15.5,29.9
1.8,11.8320559671927,24.6974567250738,4.77358816875122,-0.00419742528934108,1,15.5,29.9
1.83333333333333,11.8330581428961,24.8565032382551,4.7693923324959,-0.00419583625531583,1,15.5,29.9
1.86666666666667,11.8340634643038,25.0154098942098,4.76519809467266,-0.00419423782323936,1,15.5,29.9
1.9,11.8350728300298,25.1741767404231,4.76100545515741,-0.0041926395152565,1,15.5,29.9
1.93333333333333,11.8360874971734,25.332803821905,4.75681440880532,-0.00419104635208889,1,15.5,29.9
1.96666666666667,11.8371088619206,25.4912911824103,4.75262494845643,-0.00418946034888545,1,15.5,29.9
2,11.8381382932296,25.6496388654215,4.74843706653641,-0.00418788192002495,1,15.5,29.9
2.03333333333333,11.8391770162034,25.8078469148834,4.74425075572036,-0.00418631081604559,1,15.5,29.9
2.06666666666667,11.8402260377017,25.9659153757144,4.74006600912464,-0.00418474659572254,1,15.5,29.9
2.1,11.8412861062107,26.1238442941301,4.7358828203418,-0.00418318878283674,1,15.5,29.9
2.13333333333333,11.8423576993265,26.2816337178085,4.73170118348225,-0.00418163685955175,1,15.5,29.9
2.16666666666667,11.8434410339109,26.439283695918,4.72752109328022,-0.00418009020203591,1,15.5,29.9
2.2,11.8445360950538,26.5967942790202,4.72334254525887,-0.00417854802134787,1,15.5,29.9
2.23333333333333,11.845642680038,26.7541655188645,4.7191655359134,-0.00417700934546605,1,15.5,29.9
2.26666666666667,11.8467604527456,26.9113974680955,4.71499006285359,-0.00417547305980737,1,15.5,29.9
2.3,11.8478890028965,27.0684901799054,4.71081612484927,-0.00417393800432819,1,15.5,29.9
2.33333333333333,11.8490279038188,27.2254437101045,4.70664403290741,-0.00417209194185197,1,15.5,29.9
2.36666666666667,11.8501767627607,27.3822581532313,4.70247604827564,-0.00416798463176971,1,15.5,29.9
2.4,11.851335258688,27.5389337121516,4.69831620626654,-0.00415984200910469,1,15.5,29.9
2.43333333333333,11.8525031641008,27.6954707351498,4.69416909864651,-0.00414710762002901,1,15.5,29.9
2.46666666666667,11.8536803503801,27.8518697271877,4.69003958207707,-0.00412951656943683,1,15.5,29.9
2.5,11.8548667787542,28.0081313559222,4.6859325090846,-0.00410707299247637,1,15.5,29.9
2.53333333333333,11.8560624807394,28.1642564446375,4.681852381642,-0.00408012744259789,1,15.5,29.9
2.56666666666667,11.8572675330767,28.3202459599847,4.67780330521266,-0.00404907642934216,1,15.5,29.9
2.6,11.8584820321913,28.476100995712,4.67378875461136,-0.00401455060129852,1,15.5,29.9
2.63333333333333,11.8597060722961,28.6318227471135,4.66981132557008,-0.00397742904128062,1,15.5,29.9
2.66666666666667,11.8609397298501,28.7874124807203,4.66587269551423,-0.00393863005584549,1,15.5,29.9
2.7,11.8621830553864,28.9428715049192,4.66197370637946,-0.00389898913476827,1,15.5,29.9
2.73333333333333,11.8634360721396,29.0982011442702,4.65811449788346,-0.00385920849600829,1,15.5,29.9
2.76666666666667,11.8646987797758,29.2534027184723,4.65429465085416,-0.00381984702929383,1,15.5,29.9
2.8,11.8659711609787,29.4084775259239,4.65051331698091,-0.00378133387325352,1,15.5,29.9
2.83333333333333,11.8672531886877,29.5634268308877,4.64676930074522,-0.00374401623569032,1,15.5,29.9
2.86666666666667,11.8685448322763,29.7182518529741,4.64306113227326,-0.0037081684719622,1,15.5,29.9
2.9,11.8698460617096,29.8729537595235,4.63938715880326,-0.00367397346999976,1,15.5,29.9
2.93333333333333,11.8711568494797,30.0275336607008,4.63574561237404,-0.00364154642921299,1,15.5,29.9
2.96666666666667,11.8724771707162,30.1819926061235,4.6321346191765,-0.0036109931975421,1,15.5,29.9
3,11.8738070021961,30.3363315795509,4.6285520893981,-0.00358252977840134,1,15.5,29.9
3.03333333333333,11.8751463210683,30.4905514926201,4.62499582093103,-0.00355626846707491,1,15.5,29.9
3.06666666666667,11.8764951039755,30.6446531829791,4.62146356487121,-0.00353225605981766,1,15.5,29.9
3.1,11.8778533268663,30.7986374122338,4.61795302357424,-0.00351054129696582,1,15.5,29.9
3.13333333333333,11.879220965524,30.9525048666313,4.6144619974112,-0.00349102616304542,1,15.5,29.9
3.16666666666667,11.8805979990193,31.1062564588766,4.61104937167779,-0.00341262573340373,1,15.5,29.9
3.2,11.8819845073276,31.2599049658174,4.608463084497,-0.0025862871807929,1,15.5,29.9
3.23333333333333,11.8833808431464,31.4134951682676,4.60770902256107,-0.000754061935928085,1,15.5,29.9
3.26666666666667,11.8847876267577,31.5671020978196,4.60958581515564,0.00187679259456974,1,15.5,29.9
3.3,11.8862056929514,31.72082353799,4.6146607353091,0.00507492015345878,1,15.5,29.9
3.33333333333333,11.8876360327386,31.8747721348957,4.62325399674525,0.00859326143614769,1,15.5,29.9
3.36666666666667,11.8890797310107,32.0290673520383,4.63546619091278,0.0122121941675353,1,15.5,29.9
3.4,11.8905379051363,32.1838279241768,4.65111106446563,0.0156448735528505,1,15.5,29.9
3.43333333333333,11.892011601328,32.3391598931385,4.66967021344457,0.0185591489789347,4,15.5,29.9
3.46666666666667,11.8935017529893,32.4951522649402,4.69067100919304,0.0210007957484732,4,15.5,29.9
3.5,11.8950091971181,32.6518795731068,4.71371412994147,0.0230431207484232,4,15.5,29.9
3.53333333333333,11.8965346901003,32.809404432906,4.73848881626364,0.0247746863221794,4,15.5,29.9
3.56666666666667,11.8980789276205,32.9677805342566,4.76476214460802,0.026273328344379,4,15.5,29.9
3.6,11.8996425546175,33.1270544356905,4.79233376232678,0.0275716177187588,4,15.5,29.9
3.63333333333333,11.9012261662536,33.2872662590913,4.8210162357598,0.0286824734330207,4,15.5,29.9
3.66666666666667,11.9028303066667,33.4484500344177,4.85063162159928,0.0296153858394756,4,15.5,29.9
3.7,11.9044554688504,33.6106340571336,4.88101444428666,0.0303828226873781,4,15.5,29.9
3.73333333333333,11.9061020967229,33.7738413721676,4.91201571809991,0.0310012738132492,4,15.5,29.9
3.76666666666667,11.9077705895393,33.9380904050265,4.94351054644615,0.0314948283462435,4,15.5,29.9
3.8,11.9094613144196,34.1033963555018,4.97543683196223,0.0319262855160787,4,15.5,29.9
3.83333333333333,11.9111746272507,34.2697733706894,5.00778195484356,0.0323451228813276,4,15.5,29.9
3.86666666666667,11.9129108758898,34.437234776104,5.04049716920163,0.0327152143580758,4,15.5,29.9
3.9,11.9146703847321,34.6057913585119,5.0734859194083,0.0329887502066688,4,15.5,29.9
3.93333333333333,11.9164534471914,34.7754505214696,5.1066472610684,0.0331613416601027,4,15.5,29.9
3.96666666666667,11.9182603285051,34.9462165507961,5.13989697789126,0.0332497168228594,4,15.5,29.9
4,11.9200912722979,35.1180912938084,5.17317312325759,0.0332761453663277,4,15.5,29.9
4.03333333333333,11.9219465068537,35.2910748277192,5.20642515954713,0.0332520362895359,4,15.5,29.9
4.06666666666667,11.9238262367624,35.4651646898866,5.23953820143817,0.033113041891041,4,15.5,29.9
4.1,11.9257299972281,35.6403528977635,5.27226931935643,0.0327311179182601,4,15.5,29.9
4.13333333333333,11.9276550843158,35.8166172444349,5.30399009845313,0.0317207790967045,4,15.5,29.9
4.16666666666667,11.92959826503,35.9939114495875,5.33393401948834,0.0299439210352128,4,15.5,29.9
4.2,11.9315541439317,36.1721611679227,5.36112721894496,0.0271931994566197,4,15.5,29.9
4.23333333333333,11.9335153185529,36.351252138379,5.3841383471666,0.0230111282216354,4,15.5,29.9
4.26666666666667,11.9354736024286,36.5310182632381,5.40142257618583,0.0172842290192348,1,15.5,29.9
4.3,11.9374230478548,36.7112608621346,5.41293335609523,0.011510779909397,1,15.5,29.9
4.33333333333333,11.9393599099108,36.8918123951791,5.42018447210008,0.00725111600484585,1,15.5,29.9
4.36666666666667,11.9412805780293,37.0725520284952,5.42437668452806,0.00419221242797807,1,15.5,29.9
4.4,11.9431821565155,37.2533929461016,5.42636962091363,0.00199293638557307,1,15.5,29.9
4.43333333333333,11.9450586961944,37.4342727194486,5.42677852041569,0.000408899502063242,1,15.5,29.9
4.46666666666667,11.9469035629999,37.6151463530369,5.42604348577957,-0.000735034636117682,1,15.5,29.9
4.5,11.948711084531,37.795981301034,5.4244790532055,-0.00156443257407268,1,15.5,29.9
4.53333333333333,11.9504789903458,37.9767538823453,5.42230969834125,-0.00216935486424941,1,15.5,29.9
4.56666666666667,11.9522080507135,38.1574467329779,5.41969532417995,-0.00261437416130583,1,15.5,29.9
4.6,11.9539009694952,38.338046987362,5.41674950407183,-0.00294582010811606,1,15.5,29.9
4.63333333333333,11.9555614371389,38.518544973504,5.41355252778905,-0.00319697628278259,1,15.5,29.9
4.66666666666667,11.9571940758828,38.698933267664,5.41016066513598,-0.00339186265306424,1,15.5,29.9
4.7,11.9588061707493,38.879205994847,5.40661283663627,-0.00354782849970992,1,15.5,29.9
4.73333333333333,11.960407496977,39.059358336439,5.40293535892892,-0.00367747770735427,1,15.5,29.9
4.76666666666667,11.9620107790134,39.2393861644212,5.3991453668284,-0.00378999210052289,1,15.5,29.9
4.8,11.9636283551803,39.4192858052714,5.39525315164646,-0.00389221518193317,1,15.5,29.9
4.83333333333333,11.9652708009827,39.5990538483499,5.39126365594535,-0.00398949570111462,1,15.5,29.9
