Time,x_ego,y_ego,velocity,acceleration,action,x_ped,y_ped
0,11.8,15.9,7,0,1,15.5,29.9
0.0333333333333333,11.7999917674651,16.1332703793692,6.99615581301837,-0.0038441869816257,1,15.4502170138889,29.9
0.0666666666666667,11.7999402564471,16.366406597829,6.99196984090112,-0.00418597211725302,1,15.4008680555556,29.9
0.1,11.7998175873808,16.5994007464374,6.98769625012154,-0.00427359077958034,1,15.351953125,29.9
0.133333333333333,11.7996093031013,16.8322537459861,6.98350030126478,-0.00419594885676311,1,15.3034722222222,29.9
0.166666666666667,11.7993103617429,17.0649677620576,6.97936009298268,-0.00414020828209782,1,15.2554253472222,29.9
0.2,11.7989215461325,17.2975443409833,6.97525983597419,-0.0041002570084876,1,15.2078125,29.9
0.233333333333333,11.7984467132065,17.5299845887064,6.97118823933646,-0.00407159663773449,1,15.1606336805556,29.9
0.266666666666667,11.7978909742703,17.7622892995322,6.96713728559196,-0.00405095374450148,1,15.1138888888889,29.9
0.3,11.7972596746204,17.9944590477244,6.96310129964041,-0.00403598595154353,1,15.067578125,29.9
0.333333333333333,11.7965579336057,18.2264942520728,6.95907625948852,-0.00402504015189464,1,15.0217013888889,29.9
0.366666666666667,11.7957904945178,18.4583952211855,6.95505930280815,-0.00401695668037227,1,14.9762586805556,29.9
0.4,11.7949624829148,18.6901621868545,6.95104827710582,-0.00401102570232936,1,14.93125,29.9
0.433333333333333,11.7940811624512,18.9217953313296,6.94704168446244,-0.00400659264337211,1,14.8866753472222,29.9
0.466666666666667,11.7931525510283,19.1532947972118,6.94303856738482,-0.00400311707762224,1,14.8425347222222,29.9
0.5,11.7921806860039,19.3846606953456,6.93903823747564,-0.00400032990917776,1,14.798828125,29.9
0.533333333333333,11.7911679006849,19.6158931117556,6.9350401942475,-0.00399804322814656,1,14.7555555555556,29.9
0.566666666666667,11.7901151252183,19.8469921129899,6.93104407128319,-0.00399612296430707,1,14.7127170138889,29.9
0.6,11.789022198434,20.0779577503986,6.92704959899718,-0.00399447228600902,1,14.6703125,29.9
0.633333333333333,11.7878881826693,20.3087900636715,6.92305657793493,-0.00399302106225097,1,14.6283420138889,29.9
0.666666666666667,11.7867116705222,20.5394890838346,6.91906485925495,-0.00399171867997872,1,14.5868055555556,29.9
0.7,11.7854910672881,20.7700548358113,6.91507433045424,-0.00399052880071427,1,14.545703125,29.9
0.733333333333333,11.7842248302238,21.0004873405906,6.91108490510375,-0.00398942535049063,1,14.5050347222222,29.9
0.766666666666667,11.7829116495126,21.2307862536807,6.90707471697274,-0.00401018813100862,1,14.4648003472222,29.9
0.8,11.7815509509294,21.460864760601,6.89787741362461,-0.00919730334813007,1,14.425,29.9
0.833333333333333,11.7801429862937,21.6905499558905,6.88349364352672,-0.0143837700978864,1,14.3856336805556,29.9
0.866666666666667,11.7786883260028,21.9196976622257,6.86564628337523,-0.0178473601514897,1,14.3467013888889,29.9
0.9,11.7771876417488,22.1482214943315,6.84607987300254,-0.0195664103726969,3,14.308203125,29.9
0.933333333333333,11.7756418950856,22.3760350857123,6.82305094976071,-0.0230289232418253,3,14.2701388888889,29.9
0.966666666666667,11.7740522357447,22.6030520902644,6.79830406203265,-0.0247468877280568,3,14.2325086805556,29.9
1,11.7724195902023,22.8292439468715,6.77356175317635,-0.0247423088563039,3,14.1953125,29.9
1.03333333333333,11.7707452506975,23.054524337474,6.74363610878107,-0.0299256443952753,3,14.1585503472222,29.9
1.06666666666667,11.7690306795234,23.2787778988334,6.71197214470563,-0.0316639640754479,3,14.1222222222222,29.9
1.1,11.7672771640042,23.5019183519588,6.67686998905761,-0.035102155648012,3,14.086328125,29.9
1.13333333333333,11.7654857925183,23.7238885018121,6.64177447178178,-0.0350955172758338,3,14.0508680555556,29.9
1.16666666666667,11.7636572679151,23.9446885689236,6.60668578481954,-0.0350886869622453,3,14.0158420138889,29.9
1.2,11.761792280031,24.1643187797097,6.57160405541021,-0.0350817294093266,3,13.98125,29.9
1.23333333333333,11.7598915161366,24.3827793647381,6.53652936746469,-0.0350746879455155,3,13.9470920138889,29.9
1.26666666666667,11.7579552388843,24.600127960537,6.50490598565003,-0.0316233818146667,3,13.9133680555556,29.9
1.3,11.7559841331692,24.8163647932797,6.46984509231778,-0.0350608933322496,3,13.9133680555556,29.9
1.33333333333333,11.7539788637973,25.0314900927267,6.43823550341264,-0.0316095889051402,3,13.9133680555556,29.9
1.36666666666667,11.751940101917,25.2455040848944,6.40318840987163,-0.035047093541011,3,13.9133680555556,29.9
1.4,11.7498689644469,25.458349596352,6.36814841910463,-0.0350399907669914,3,13.9133680555556,29.9
1.43333333333333,11.7477661036879,25.6700268616394,6.33311557636667,-0.0350328427379631,3,13.9133680555556,29.9
1.46666666666667,11.745632161739,25.8805361162068,6.29808990674526,-0.0350256696214117,3,13.9133680555556,29.9
1.5,11.7434680294081,26.0898485314829,6.26132751066617,-0.0367623960790846,3,13.9133680555556,29.9
1.53333333333333,11.7412746031713,26.2979352837717,6.22457250278651,-0.0367550078796697,3,13.9133680555556,29.9
1.56666666666667,11.7390522618159,26.5048256818804,6.1895688120869,-0.035003690699603,3,13.9133680555556,29.9
1.6,11.7368013804412,26.7105490311582,6.15457232248047,-0.0349964896064279,3,13.9133680555556,29.9
1.63333333333333,11.7345226010067,26.9151055698018,6.11958299098995,-0.0349893314905287,3,13.9133680555556,29.9
1.66666666666667,11.7322165674608,27.1184955352548,6.08460078120835,-0.0349822097815915,3,13.9133680555556,29.9
1.7,11.7298839249311,27.3207191643027,6.04962566327576,-0.0349751179325892,3,13.9133680555556,29.9
1.73333333333333,11.7275250243093,27.5218053940233,6.01637972521129,-0.0332459380644723,3,13.9133680555556,29.9
1.76666666666667,11.725139903167,27.7218118573262,5.98486274327805,-0.0315169819332395,3,13.9133680555556,29.9
1.8,11.7227285567829,27.9207965419987,5.95509625774658,-0.0297664855314688,3,13.9133680555556,29.9
1.83333333333333,11.7202906241318,28.1188461269606,5.9287802955803,-0.0263159621662865,3,13.9133680555556,29.9
1.86666666666667,11.7178256809977,28.3160472763489,5.90421403524371,-0.0245662603365835,3,13.9133680555556,29.9
1.9,11.7153338679271,28.5124292386409,5.87965320489201,-0.0245608303517031,3,13.9133680555556,29.9
1.93333333333333,11.712815279,28.7080208908907,5.85681976431586,-0.0228334405761492,3,13.9133680555556,29.9
1.96666666666667,11.7102699713421,28.9028511012158,5.83399128429796,-0.0228284800179006,3,13.9133680555556,29.9
2,11.7076962722949,29.0970929598269,5.8215439245683,-0.0124473597296602,1,13.9133680555556,29.9
2.03333333333333,11.7050913984041,29.2910059916655,5.81428824362264,-0.00725568094565965,1,13.9133680555556,29.9
2.06666666666667,11.702454138596,29.4847058203587,5.80877910893887,-0.00550913468377612,1,13.9133680555556,29.9
2.1,11.6997838746015,29.6782506452366,5.80501598576776,-0.00376312317110994,1,13.9133680555556,29.9
2.13333333333333,11.6970802763125,29.8716695842066,5.80125447929842,-0.0037615064693366,1,13.9133680555556,29.9
2.16666666666667,11.6943433288745,30.0649626798655,5.79749434651727,-0.00376013278115206,1,13.9133680555556,29.9
2.2,11.6915737065042,30.258129976839,5.79373531873003,-0.0037590277872388,1,13.9133680555556,29.9
2.23333333333333,11.6887744560169,30.4511715464175,5.78997722641494,-0.0037580923150875,1,13.9133680555556,29.9
2.26666666666667,11.6859481251536,30.644087451826,5.78622003899487,-0.00375718742006725,1,13.9133680555556,29.9
2.3,11.6830967952796,30.8368777491493,5.78246365511182,-0.00375638388305344,1,13.9133680555556,29.9
2.33333333333333,11.6802239298493,31.0295425127395,5.77870803010479,-0.00375562500703186,1,13.9133680555556,29.9
2.36666666666667,11.6773326239158,31.2220818125461,5.77495313720717,-0.00375489289761965,1,13.9133680555556,29.9
2.4,11.6744275632515,31.414495741294,5.77119892055332,-0.00375421665385023,1,13.9133680555556,29.9
2.43333333333333,11.6715148643126,31.6067844133583,5.76744538422836,-0.00375353632496012,1,13.9133680555556,29.9
2.46666666666667,11.6686014111184,31.798947956019,5.763692573095,-0.00375281113335468,1,13.9133680555556,29.9
2.5,11.6656942119877,31.9909865001776,5.75994054959881,-0.00375202349619119,1,13.9133680555556,29.9
2.53333333333333,11.6627994198995,32.1829001656078,5.7561894123631,-0.00375113723571197,1,13.9133680555556,29.9
2.56666666666667,11.6599197485237,32.3746890225149,5.75243922436278,-0.00375018800032212,1,13.9133680555556,29.9
2.6,11.6570548420228,32.5663530954163,5.748689968839,-0.00374925552377636,1,13.9133680555556,29.9
2.63333333333333,11.654202386262,32.7578923787439,5.7449415944358,-0.00374837440320341,1,13.9133680555556,29.9
2.66666666666667,11.6513590238809,32.9493068503219,5.74119404676618,-0.0037475476696196,1,13.9133680555556,29.9
2.7,11.6485210324614,33.1405964816351,5.73744728346547,-0.003746763300704,1,13.9133680555556,29.9
2.73333333333333,11.6456847803625,33.3317612448258,5.73370127758102,-0.00374600588445606,1,13.9133680555556,29.9
2.76666666666667,11.6428470044192,33.5228011169731,5.72995601523176,-0.00374526234925998,1,13.9133680555556,29.9
2.8,11.6400049613328,33.7137160824286,5.72621149157402,-0.00374452365774314,1,13.9133680555556,29.9
2.83333333333333,11.637156497288,33.9045061339077,5.72246770696334,-0.00374378461067515,1,13.9133680555556,29.9
2.86666666666667,11.6343000661196,34.0951712728211,5.71872466389415,-0.00374304306919093,1,13.9133680555556,29.9
2.9,11.6314347119866,34.2857115090986,5.71498236480099,-0.00374229909315726,1,13.9133680555556,29.9
2.93333333333333,11.6285600224146,34.4761268605879,5.71124081071317,-0.00374155408782251,1,13.9133680555556,29.9
2.96666666666667,11.6256760533733,34.6664173520408,5.7075000007361,-0.0037408099770655,1,13.9133680555556,29.9
3,11.622783229074,34.8565830137088,5.70375993225644,-0.00374006847966779,1,13.9133680555556,29.9
3.03333333333333,11.6198822232378,35.046623879636,5.70002060165137,-0.00373933060507081,1,13.9133680555556,29.9
3.06666666666667,11.6169738330877,35.2365399858125,5.69628200519971,-0.00373859645165986,1,13.9133680555556,29.9
3.1,11.6140588600564,35.4263313683962,5.69254413989612,-0.00373786530358089,1,13.9133680555556,29.9
3.13333333333333,11.6111380109678,35.615998062218,5.68880700396268,-0.00373713593344682,1,13.9133680555556,29.9
3.16666666666667,11.6082118301548,35.8055400997342,5.6850705969874,-0.003736406975273,1,13.9133680555556,29.9
3.2,11.6052806674921,35.9949575105122,5.68133491974036,-0.00373567724704404,1,13.9133680555556,29.9
3.23333333333333,11.6023446810685,36.1842503212375,5.67759997378464,-0.00373494595571611,1,13.9133680555556,29.9
3.26666666666667,11.5994038676971,36.3734185561472,5.67386576101061,-0.00373421277403541,1,13.9133680555556,29.9
3.3,11.5964581108168,36.5624622377346,5.67013228319704,-0.00373347781357403,1,13.9133680555556,29.9
3.33333333333333,11.5935072341595,36.7513813875528,5.66639954166899,-0.00373274152804637,1,13.9133680555556,29.9
3.36666666666667,11.5905510507639,36.9401760269559,5.66266753709192,-0.00373200457707057,1,13.9133680555556,29.9
3.4,11.5875893999134,37.1288461776653,5.65893626941584,-0.00373126767607967,1,13.9133680555556,29.9
3.43333333333333,11.5846228274741,37.3173918722673,5.65520571990154,-0.0037305495142963,1,13.9133680555556,29.9
3.46666666666667,11.5816541483873,37.5058131785054,5.65147588186002,-0.00372983804151961,1,13.9133680555556,29.9
3.5,11.578685766915,37.6941101581358,5.64774677057681,-0.00372911128320919,1,13.9133680555556,29.9
3.53333333333333,11.5757190485729,37.8822828570465,5.64401839566883,-0.00372837490797995,1,13.9133680555556,29.9
3.56666666666667,11.5727545370263,38.0703313084206,5.64029076101787,-0.00372763465096604,1,13.9133680555556,29.9
3.6,11.5697928826355,38.2582555470699,5.63656385599553,-0.00372690502233475,1,13.9133680555556,29.9
3.63333333333333,11.5668366914627,38.4460556382697,5.63283768021001,-0.00372617578551893,1,13.9133680555556,29.9
3.66666666666667,11.5638879254284,38.6337316373101,5.62911224332549,-0.00372543688452698,1,13.9133680555556,29.9
3.7,11.5609474592386,38.8212835824637,5.62538754793211,-0.00372469539338116,1,13.9133680555556,29.9
3.73333333333333,11.558015952723,39.0087115085311,5.62166359136983,-0.00372395656227553,1,13.9133680555556,29.9
3.76666666666667,11.5550957614973,39.1960154766615,5.61794037703203,-0.0037232143377981,1,13.9133680555556,29.9
3.8,11.5521884166852,39.3831955349649,5.61421790594685,-0.00372247108518486,1,13.9133680555556,29.9
3.83333333333333,11.5492941945253,39.5702517117763,5.61049617255905,-0.00372173338779547,1,13.9133680555556,29.9
