Time,x_ego,y_ego,velocity,acceleration,action,x_ped,y_ped
0,11.8,15.9,5,0,1,15.5,29.9
0.0333333333333333,11.7999933569295,16.066607688827,4.99642264628455,-0.00357735371545065,1,15.5,29.9
0.0666666666666667,11.7999507397231,16.2330926524405,4.99264795270227,-0.00377469358228133,1,15.5,29.9
0.1,11.7998468051455,16.3994492905619,4.9887327307045,-0.00391522199777139,1,15.5,29.9
0.133333333333333,11.7996669516127,16.5656735951065,4.98471750485773,-0.00401522584676695,1,15.5,29.9
0.166666666666667,11.7994054621554,16.7317626956387,4.98063101375243,-0.00408649110530224,1,15.5,29.9
0.2,11.7990632251381,16.8977145371793,4.97649362738352,-0.0041373863689067,1,15.5,29.9
0.233333333333333,11.7986455093421,17.0635276524682,4.972319859267,-0.00417376811651593,1,15.5,29.9
0.266666666666667,11.7981600782272,17.2292010003183,4.96812014082674,-0.00419971844026001,1,15.5,29.9
0.3,11.79761575291,17.3947338496541,4.96390203589034,-0.00421810493640784,1,15.5,29.9
0.333333333333333,11.797023215486,17.5601256977535,4.9596707120065,-0.00423132388383429,1,15.5,29.9
0.366666666666667,11.7963987208815,17.7253762174938,4.95543006181017,-0.0042406501963308,1,15.5,29.9
0.4,11.795756981924,17.8904852052929,4.95118325223011,-0.0042468095800583,1,15.5,29.9
0.433333333333333,11.7951110609856,18.0554525453968,4.94693256583257,-0.004250686397544,1,15.5,29.9
0.466666666666667,11.7944718376569,18.2202781818313,4.94267979406799,-0.00425277176457506,1,15.5,29.9
0.5,11.7938454906042,18.3849620920882,4.93842626207772,-0.00425353199027612,1,15.5,29.9
0.533333333333333,11.7932336568943,18.549504271348,4.93417282348708,-0.00425343859063787,1,15.5,29.9
0.566666666666667,11.792634451261,18.7139047241599,4.92992000429167,-0.00425281919541476,1,15.5,29.9
0.6,11.7920435201511,18.8781634603992,4.92566812411057,-0.00425188018109868,1,15.5,29.9
0.633333333333333,11.7914550445478,19.0422804937578,4.92141738282251,-0.00425074128805925,1,15.5,29.9
0.666666666666667,11.7908626358441,19.2062558415227,4.91716791370511,-0.00424946911739799,1,15.5,29.9
0.7,11.7902600875356,19.3700895248876,4.91291981096984,-0.00424810273527054,1,15.5,29.9
0.733333333333333,11.7896419570415,19.5337815694087,4.90867314133759,-0.00424666963224851,1,15.5,29.9
0.766666666666667,11.7890039616357,19.6973320054122,4.90442794812077,-0.00424519321682038,1,15.5,29.9
0.8,11.788343183789,19.8607408682483,4.9001842537748,-0.00424369434597072,1,15.5,29.9
0.833333333333333,11.787658095256,20.0240081983088,4.89594206404007,-0.00424218973473067,1,15.5,29.9
0.866666666666667,11.7869484247057,20.187134040747,4.89170137424961,-0.00424068979045611,1,15.5,29.9
0.9,11.7862149078152,20.3501184448791,4.88746217660579,-0.00423919764382052,1,15.5,29.9
0.933333333333333,11.7854589684247,20.5129614633051,4.88322446652035,-0.00423771008544271,1,15.5,29.9
0.966666666666667,11.7846823822802,20.6756631508459,4.87898824643974,-0.00423622008060587,1,15.5,29.9
1,11.7838869702658,20.8382235634362,4.87475352656874,-0.00423471987100132,1,15.5,29.9
1.03333333333333,11.7830743568015,21.0006427571168,4.87052032299597,-0.00423320357277657,1,15.5,29.9
1.06666666666667,11.7822458136092,21.1629207872474,4.86628865442622,-0.00423166856974699,1,15.5,29.9
1.1,11.781402192473,21.3250577080111,4.8620585388305,-0.00423011559571584,1,15.5,29.9
1.13333333333333,11.7805439360499,21.4870535722232,4.85782999094838,-0.00422854788212135,1,15.5,29.9
1.16666666666667,11.7796711456156,21.6489084314042,4.85360302101344,-0.00422696993494309,1,15.5,29.9
1.2,11.7787836800466,21.8106223360365,4.84937763460132,-0.00422538641212,1,15.5,29.9
1.23333333333333,11.7778812612709,21.9721953359142,4.84515383325779,-0.0042238013435334,1,15.5,29.9
1.26666666666667,11.7769635666441,22.1336274804937,4.84093161553197,-0.00422221772581377,1,15.5,29.9
1.3,11.7760302963756,22.294918819182,4.83671097811824,-0.00422063741373435,1,15.5,29.9
1.33333333333333,11.7750812121933,22.4560694015259,4.83249191690681,-0.00421906121142879,1,15.5,29.9
1.36666666666667,11.7741161501759,22.6170792772998,4.82827442781832,-0.00421748908849118,1,15.5,29.9
1.4,11.7731350149976,22.7779484965115,4.82405850735368,-0.00421592046463282,1,15.5,29.9
1.43333333333333,11.7721377643881,22.9386771093581,4.81984415284396,-0.00421435450972396,1,15.5,29.9
1.46666666666667,11.7711243917462,23.0992651661676,4.8156313624386,-0.00421279040535882,1,15.5,29.9
1.5,11.7700949123754,23.2597127173503,4.81142013491449,-0.00421122752411485,1,15.5,29.9
1.53333333333333,11.7690493557358,23.4200198133754,4.80721046940869,-0.00420966550579571,1,15.4777777777778,29.9
1.56666666666667,11.7679877633328,23.5801865047704,4.80300236516985,-0.00420810423884088,1,15.4111111111111,29.9
1.6,11.7669101900305,23.7402128421368,4.7987958213924,-0.004206543777447,1,15.3,29.9
1.63333333333333,11.7658167059247,23.9000988761648,4.79459083715758,-0.00420498423481863,1,15.1698412698413,29.9
1.66666666666667,11.7647073963389,24.0598446576369,4.79038741146805,-0.00420342568953647,1,15.0460317460317,29.9
1.7,11.7635823586441,24.2194502374099,4.78618554333824,-0.00420186812980461,1,14.9285714285714,29.9
1.73333333333333,11.7624416959729,24.3789156663765,4.781985231894,-0.00420031144424726,1,14.8174603174603,29.9
1.76666666666667,11.7612855090573,24.5382409954138,4.77778647644092,-0.00419875545307935,1,14.7126984126984,29.9
1.8,11.7601138880587,24.6974262753278,4.77358927647804,-0.00419719996287782,1,14.6142857142857,29.9
1.83333333333333,11.7589269062787,24.8564715568077,4.76939363165371,-0.00419564482433366,1,14.5222222222222,29.9
1.86666666666667,11.7577246171118,25.0153768903999,4.76519954167896,-0.00419408997474946,1,14.4365079365079,29.9
1.9,11.7565070547457,25.1741423265053,4.76100700622458,-0.00419253545437215,1,14.3571428571429,29.9
1.93333333333333,11.7552742382027,25.3327679154001,4.75681602482983,-0.00419098139475338,1,14.284126984127,29.9
1.96666666666667,11.7540261775862,25.4912537072735,4.75262659684461,-0.00418942798521815,1,14.2174603174603,29.9
2,11.752762881024,25.6495997522726,4.74843872141616,-0.00418787542844878,1,14.1571428571429,29.9
2.03333333333333,11.7514843608208,25.8078061005453,4.74425239751888,-0.00418632389728213,1,14.1031746031746,29.9
2.06666666666667,11.7501906377009,25.9658728022716,4.74006762401602,-0.00418477350285684,1,14.0555555555556,29.9
2.1,11.7488817425952,26.1237999076797,4.73588439973583,-0.00418322428019113,1,14.0142857142857,29.9
2.13333333333333,11.7475577160432,26.2815874670452,4.7317027235436,-0.00418167619222842,1,13.9793650793651,29.9
2.16666666666667,11.7462190371751,26.439177400751,4.72403477183058,-0.0076679517130227,1,13.9507936507936,29.9
2.2,11.7448664191219,26.5964829380755,4.71464678644744,-0.00938798538313979,1,13.9285714285714,29.9
2.23333333333333,11.743500166671,26.753475454622,4.70526135547614,-0.00938543097130395,1,13.9126984126984,29.9
2.26666666666667,11.7421201618171,26.9101837408507,4.6976008492261,-0.00766050625003523,1,13.9031746031746,29.9
2.3,11.7407262874235,27.0666365894188,4.68994307661393,-0.00765777261217782,1,13.9,29.9
2.33333333333333,11.7393184135228,27.2228631559721,4.68403197491967,-0.00591110169425768,1,13.9,29.9
2.36666666666667,11.7378963987508,27.378892591628,4.67812338435606,-0.00590859056360937,1,13.9,29.9
2.4,11.736460085724,27.5347536790203,4.67393932279425,-0.00418406156180406,1,13.9,29.9
2.43333333333333,11.7350092999744,27.6904751928615,4.66975734694032,-0.0041819758539372,1,13.9,29.9
2.46666666666667,11.7335440815368,27.8460575621453,4.66559910142636,-0.00415824551396149,1,13.9,29.9
2.5,11.7320644594723,28.0015012113212,4.66144267396126,-0.00415642746509803,1,13.9,29.9
2.53333333333333,11.7305704583152,28.1568061982417,4.65728798464134,-0.00415468931992002,1,13.9,29.9
2.56666666666667,11.7290620983826,28.3119725784149,4.65313497615959,-0.00415300848174738,1,13.9,29.9
2.6,11.727539398711,28.4670004056753,4.64898360697705,-0.00415136918254344,1,13.9,29.9
2.63333333333333,11.7260023794491,28.6218897326677,4.64483384651392,-0.00414976046312887,1,13.9,29.9
2.66666666666667,11.7244510636136,28.7766406111961,4.64068567188789,-0.00414817462602723,1,13.9,29.9
2.7,11.7228854781787,28.931253092473,4.63653906579056,-0.00414660609733541,1,13.9,29.9
2.73333333333333,11.7213056545281,29.0857272272963,4.63239401514091,-0.00414505064964832,1,13.9,29.9
2.76666666666667,11.7197116283437,29.2400630661728,4.6282505102118,-0.00414350492910653,1,13.9,29.9
2.8,11.7181034390498,29.3942606594022,4.62410854399763,-0.00414196621417062,1,13.9,29.9
2.83333333333333,11.716481128954,29.5483200571339,4.61996811167304,-0.00414043232458727,1,13.9,29.9
2.86666666666667,11.7148447422396,29.7022413094035,4.61582921007079,-0.00413890160225527,1,13.9,29.9
2.9,11.7131943239558,29.8560244661556,4.61169183716911,-0.00413737290167848,1,13.9,29.9
2.93333333333333,11.7115299191278,30.0096695772592,4.6075559916178,-0.00413584555130697,1,13.9,29.9
2.96666666666667,11.7098515720734,30.1631766925171,4.60342167234517,-0.00413431927263286,1,13.9,29.9
3,11.7081593259681,30.316545861673,4.59928887828033,-0.00413279406483547,1,13.9,29.9
3.03333333333333,11.7064532226587,30.4697771344179,4.59515760820463,-0.00413127007569969,1,13.9,29.9
3.06666666666667,11.7047333026926,30.6228705603956,4.59102786072159,-0.00412974748304773,1,13.9,29.9
3.1,11.7029996055026,30.7758261892087,4.58689963431491,-0.00412822640667265,1,13.9,29.9
3.13333333333333,11.7012521696815,30.9286440704239,4.58277292745351,-0.00412670686140792,1,13.9,29.9
3.16666666666667,11.6994910332819,31.0813242535768,4.578647738702,-0.00412518875150791,1,13.9,29.9
3.2,11.6977162340902,31.2338667881766,4.57452406680456,-0.00412367189744067,1,13.9,29.9
3.23333333333333,11.6959278098419,31.3862717237093,4.57040191072352,-0.00412215608103228,1,13.9,29.9
3.26666666666667,11.6941257983653,31.5385391096399,4.56628126962976,-0.00412064109376598,1,13.9,29.9
3.3,11.6923102376569,31.690668995414,4.56216214285403,-0.00411912677572879,1,13.9,29.9
3.33333333333333,11.6904811659009,31.8426614304587,4.55804452981646,-0.00411761303756997,1,13.8991319444444,29.9
3.36666666666667,11.6886386214539,31.9945164641824,4.55392842995297,-0.00411609986348793,1,13.8965277777778,29.9
3.4,11.6867826428106,32.1462341459754,4.54981384265487,-0.00411458729810477,1,13.8921875,29.9
3.43333333333333,11.6849132685664,32.2978145252093,4.54570076723165,-0.00411307542321637,1,13.8861111111111,29.9
3.46666666666667,11.6830305373835,32.449257651237,4.54158920290012,-0.00411156433153081,1,13.8782986111111,29.9
3.5,11.6811344879638,32.6005635733922,4.53747914879642,-0.00411005410370091,1,13.86875,29.9
3.53333333333333,11.6792251590273,32.7517323409898,4.5333706040035,-0.00410854479292144,1,13.8574652777778,29.9
3.56666666666667,11.6773025892919,32.9027640033253,4.52926356758468,-0.0041070364188176,1,13.8444444444444,29.9
3.6,11.6753668174533,33.0536586096748,4.52515803861475,-0.00410552896993011,1,13.8296875,29.9
3.63333333333333,11.6734178821625,33.2044162092946,4.52105401620238,-0.00410402241236874,1,13.8131944444444,29.9
3.66666666666667,11.6714558220028,33.3550368514212,4.51695149950092,-0.00410251670145723,1,13.7949652777778,29.9
3.7,11.6694806754685,33.5055205852706,4.51285048770776,-0.00410101179315969,1,13.775,29.9
3.73333333333333,11.6674924809492,33.6558674600386,4.50875098005485,-0.00409950765291445,1,13.7532986111111,29.9
3.76666666666667,11.6654912767212,33.8060775249003,4.5046529757943,-0.00409800426054652,1,13.7298611111111,29.9
3.8,11.6634771009492,33.9561508290101,4.5005564741832,-0.00409650161110431,1,13.7046875,29.9
3.83333333333333,11.6614499916964,34.1060874215022,4.49646147447088,-0.00409499971231853,1,13.6777777777778,29.9
3.86666666666667,11.6594099869418,34.2558873514903,4.49236797589086,-0.00409349858002539,1,13.6491319444444,29.9
3.9,11.6573571246004,34.4055506680681,4.48827597765793,-0.00409199823292994,1,13.61875,29.9
3.93333333333333,11.6552914425428,34.5550774203098,4.48418547896993,-0.00409049868799283,1,13.5866319444444,29.9
3.96666666666667,11.6532129786118,34.7044676572696,4.48009647901271,-0.00408899995722578,1,13.5527777777778,29.9
4,11.6511217706313,34.8537214279825,4.47600897696643,-0.00408750204627406,1,13.5171875,29.9
4.03333333333333,11.6490178564102,35.0028387814642,4.4719229720118,-0.00408600495462963,1,13.4798611111111,29.9
4.06666666666667,11.6469012737384,35.1518197667108,4.46783846333475,-0.00408450867704779,1,13.4407986111111,29.9
4.1,11.64477206038,35.3006644326989,4.46375545012912,-0.00408301320563975,1,13.4,29.9
4.13333333333333,11.6426302540631,35.4493728283857,4.45967393159714,-0.00408151853197669,1,13.3574652777778,29.9
4.16666666666667,11.6404758924716,35.5979450027084,4.45559390694833,-0.0040800246488093,1,13.3131944444444,29.9
4.2,11.6383090132373,35.7463810045845,4.45151537539718,-0.00407853155114779,1,13.2671875,29.9
4.23333333333333,11.6361296539367,35.8946808829117,4.44743833616058,-0.00407703923659852,1,13.2194444444444,29.9
4.26666666666667,11.6339378520896,36.0428446865675,4.44336278845548,-0.00407554770510199,1,13.1699652777778,29.9
4.3,11.6317336451612,36.19087246441,4.43928873149723,-0.00407405695824803,1,13.11875,29.9
4.33333333333333,11.6295170705648,36.338764265277,4.43521616449881,-0.00407256699842762,1,13.0657986111111,29.9
4.36666666666667,11.6272881656656,36.4865201379867,4.43114508667078,-0.00407107782802552,1,13.0111111111111,29.9
4.4,11.6250469677825,36.6341401313377,4.42707549722196,-0.00406958944882341,1,12.9546875,29.9
4.43333333333333,11.6227935141907,36.7816242941086,4.4230073953603,-0.00406810186165973,1,12.8965277777778,29.9
4.46666666666667,11.6205278421207,36.9289726750584,4.41894078029391,-0.00406661506638617,1,12.8366319444444,29.9
4.5,11.6182499887583,37.0761853229263,4.41487565123189,-0.00406512906202128,1,12.775,29.9
4.53333333333333,11.6159599912428,37.2232622864319,4.41081200738484,-0.00406364384705338,1,12.7116319444444,29.9
4.56666666666667,11.6136578866657,37.3702036142747,4.40674984796507,-0.00406215941976118,1,12.6465277777778,29.9
4.6,11.6113437120699,37.5170093551348,4.40268917218657,-0.00406067577850688,1,12.5796875,29.9
4.63333333333333,11.6090175044497,37.6636795576721,4.39862997926463,-0.00405919292193424,1,12.5111111111111,29.9
4.66666666666667,11.6066793007512,37.8102142705271,4.39457226841557,-0.00405771084905915,1,12.4407986111111,29.9
4.7,11.6043291378734,37.9566135423202,4.39051603885632,-0.00405622955925899,1,12.36875,29.9
4.73333333333333,11.6019670526695,38.1028774216522,4.38646128980412,-0.00405474905219805,1,12.2949652777778,29.9
4.76666666666667,11.5995930819478,38.2490059571041,4.38240802047642,-0.00405326932770045,1,12.2194444444444,29.9
4.8,11.5972072624725,38.3949991972374,4.37835623009078,-0.00405179038563563,1,12.1421875,29.9
4.83333333333333,11.5948096309636,38.5408571905935,4.37430591786497,-0.0040503122258162,1,12.0631944444444,29.9
4.86666666666667,11.5924002240968,38.6865799856944,4.37025708301702,-0.00404883484794016,1,11.9824652777778,29.9
4.9,11.5899790785025,38.8321676310421,4.36620972476546,-0.00404735825156788,1,11.9,29.9
4.93333333333333,11.5875462307649,38.9776201751192,4.36216384232932,-0.00404588243613535,1,11.8157986111111,29.9
4.96666666666667,11.5851017174216,39.1229376663881,4.35811943492832,-0.00404440740099865,1,11.7298611111111,29.9
5,11.5826455749627,39.2681201532917,4.35407650178286,-0.00404293314546234,1,11.6421875,29.9
5.03333333333333,11.5801778398309,39.4131676842531,4.35003504211402,-0.00404145966883718,1,11.5527777777778,29.9
5.06666666666667,11.5776985484218,39.5580803076755,4.34599505514357,-0.00403998697045793,1,11.4616319444444,29.9
5.1,11.5752077370838,39.7028580719426,4.34195654009386,-0.00403851504970998,1,11.36875,29.9
