Time,x_ego,y_ego,velocity,acceleration,action,x_ped,y_ped
0,11.8,15.9,7,0,1,15.5,29.9
0.0333333333333333,11.7999991556326,16.133270379394,6.9961557798823,-0.00384422011770269,1,15.5,29.9
0.0666666666666667,11.7999938724217,16.3664065988009,6.99196947498367,-0.00418630489862348,1,15.5,29.9
0.1,11.799981290911,16.5994007551861,6.98769500047537,-0.00427447450830609,1,15.5,29.9
0.133333333333333,11.799959928311,16.8322537848708,6.98349768237817,-0.0041973180971997,1,15.5,29.9
0.166666666666667,11.7999292675115,17.064967878987,6.9793558991536,-0.00414178322456493,1,15.5,29.9
0.2,11.7998893888109,17.2975446157421,6.97525415530547,-0.00410174384813455,1,15.5,29.9
0.233333333333333,11.7998406878021,17.5299851341457,6.97118134647772,-0.00407280882774508,1,15.5,29.9
0.266666666666667,11.7997836887301,17.76229025851,6.96712951555286,-0.00405183092486805,1,15.5,29.9
0.3,11.7997189398368,17.9944605876619,6.9630929607827,-0.00403655477015707,1,15.5,29.9
0.333333333333333,11.7996469661865,18.2264965588621,6.95906759649829,-0.00402536428440392,1,15.5,29.9
0.366666666666667,11.7995682542707,18.4583984935997,6.95505049501719,-0.00401710148110634,1,15.5,29.9
0.4,11.7994832480002,18.6901666304015,6.95103955844974,-0.00401093656744589,1,15.5,29.9
0.433333333333333,11.7993923439172,18.9218011483377,6.94703328355868,-0.00400627489105787,1,15.5,29.9
0.466666666666667,11.7992958815275,19.1533021838602,6.94303059324841,-0.00400269031027456,1,15.5,29.9
0.5,11.7991941305593,19.3846698428662,6.93903071576646,-0.00399987748194697,1,15.5,29.9
0.533333333333333,11.7990872798548,19.6159042093404,6.93503309808947,-0.00399761767699491,1,15.5,29.9
0.566666666666667,11.7989754326791,19.8470053515472,6.93103734382374,-0.00399575426572962,1,15.5,29.9
0.6,11.7988586113389,20.0779733264704,6.92704316870383,-0.00399417511991107,1,15.5,29.9
0.633333333333333,11.7987367712691,20.3088081829978,6.92305036873156,-0.00399279997226998,1,15.5,29.9
0.666666666666667,11.7986098222063,20.5395099642075,6.91905879739163,-0.00399157133992745,1,15.5,29.9
0.7,11.7984776524496,20.7700787090112,6.91506834937421,-0.00399044801741599,1,15.5,29.9
0.733333333333333,11.7983401518047,21.0005144533354,6.91107894894945,-0.0039894004247687,1,15.5,29.9
0.766666666666667,11.7981972295258,21.2308172309702,6.90709054165695,-0.00398840729249095,1,15.5,29.9
0.8,11.7980488250494,21.4609870741784,6.90310308835145,-0.00398745330550732,1,15.5,29.9
0.833333333333333,11.7978949110564,21.6910240141309,6.89911656092095,-0.00398652743049688,1,15.5,29.9
0.866666666666667,11.7977354899653,21.9209280812169,6.89513093919432,-0.00398562172662675,1,15.5,29.9
0.9,11.7975705860071,22.1506993052636,6.89114620869842,-0.00398473049590287,1,15.5,29.9
0.933333333333333,11.7974002354391,22.3803377156906,6.88716235902748,-0.00398384967094501,1,15.5,29.9
0.966666666666667,11.7972244772446,22.6098433416198,6.88317938265898,-0.00398297636849332,1,15.5,29.9
1,11.7970433460193,22.8392162119523,6.87919727409937,-0.00398210855961612,1,15.5,29.9
1.03333333333333,11.7968568678889,23.0684563554241,6.87521602927541,-0.0039812448239589,1,15.5,29.9
1.06666666666667,11.7966650594643,23.2975638006468,6.87123564510873,-0.00398038416667834,1,15.5,29.9
1.1,11.7964679292076,23.5265385761377,6.86725611922461,-0.0039795258841151,1,15.5,29.9
1.13333333333333,11.7962654802294,23.7553807103427,6.86327744975651,-0.00397866946810588,1,15.5,29.9
1.16666666666667,11.796057713487,23.9840902316535,6.85929963521556,-0.00397781454095103,1,15.5,29.9
1.2,11.7958446305414,24.2126671684206,6.85532267440179,-0.00397696081377052,1,15.5,29.9
1.23333333333333,11.7956262353516,24.4411115489628,6.85134656634014,-0.00397610806164383,1,15.5,29.9
1.26666666666667,11.7954025349479,24.6694234015729,6.84737131023052,-0.00397525610962113,1,15.5,29.9
1.3,11.7951735391232,24.8976027545226,6.84339690540567,-0.00397440482484868,1,15.5,29.9
1.33333333333333,11.7949392594808,25.1256496360638,6.83942335129446,-0.00397355411121136,1,15.5,29.9
1.36666666666667,11.7946997082379,25.3535640744306,6.83545064739014,-0.00397270390432514,1,15.5,29.9
1.4,11.7944548971447,25.5813460978395,6.83147879322426,-0.00397185416587931,1,15.5,29.9
1.43333333333333,11.7942048367602,25.8089957344897,6.82750778834708,-0.00397100487717772,1,15.5,29.9
1.46666666666667,11.7939495361804,26.036513012564,6.82353763231461,-0.00397015603247119,1,15.5,29.9
1.5,11.7936890031841,26.2638979602289,6.81956832468183,-0.00396930763277492,1,15.5,29.9
1.53333333333333,11.7934232446668,26.4911506056357,6.81559986500098,-0.00396845968085646,1,15.4972222222222,29.9
1.56666666666667,11.7931522671952,26.718270976921,6.81163225282307,-0.00396761217790154,1,15.4888888888889,29.9
1.6,11.7928760775237,26.9452591022079,6.80766548770123,-0.00396676512184779,1,15.475,29.9
1.63333333333333,11.7925946829593,27.172115009606,6.80369956919394,-0.00396591850728356,1,15.4555555555556,29.9
1.66666666666667,11.7923080915214,27.3988387272121,6.79973449686759,-0.00396507232635201,1,15.4305555555556,29.9
1.7,11.7920163119048,27.6254302831103,6.79577027029734,-0.00396422657025219,1,15.4,29.9
1.73333333333333,11.7917193532971,27.8518897053714,6.79180688906658,-0.00396338123075957,1,15.3666666666667,29.9
1.76666666666667,11.7914172251238,28.0782170220534,6.78784435276517,-0.00396253630141086,1,15.3333333333333,29.9
1.8,11.7911099367965,28.3044122612008,6.78388266098701,-0.00396169177815597,1,15.3,29.9
1.83333333333333,11.7907974975192,28.5304754508443,6.77992181332759,-0.00396084765942728,1,15.2666666666667,29.9
1.86666666666667,11.7904799161854,28.7564066190012,6.77596180938185,-0.00396000394573193,1,15.2333333333333,29.9
1.9,11.7901572013669,28.9822057936747,6.77200264874292,-0.00395916063893775,1,15.2,29.9
1.93333333333333,11.789829361377,29.2078730028548,6.76804433100144,-0.00395831774147748,1,15.1666666666667,29.9
1.96666666666667,11.789496404376,29.4334082745174,6.76408685574582,-0.00395747525562218,1,15.1333333333333,29.9
2,11.7891583384853,29.6588116366256,6.76013022256283,-0.00395663318298389,1,15.1,29.9
2.03333333333333,11.7888151718819,29.8840831171287,6.75617443103856,-0.00395579152427139,1,15.0666666666667,29.9
2.06666666666667,11.7884669128569,30.1092227439634,6.75221948075928,-0.00395495027928483,1,15.0333333333333,29.9
2.1,11.7881135698317,30.3342305450528,6.74826537131214,-0.00395410944713159,1,15,29.9
2.13333333333333,11.7877551513398,30.5591065483071,6.74431210228565,-0.00395326902649273,1,14.9666666666667,29.9
2.16666666666667,11.7873916659856,30.7838507816233,6.74035967326969,-0.00395242901595694,1,14.9333333333333,29.9
2.2,11.7870231223946,31.0084632728853,6.73640808385542,-0.00395158941427631,1,14.9,29.9
2.23333333333333,11.7866495291701,31.2329440499635,6.7324573336349,-0.00395075022052005,1,14.8666666666667,29.9
2.26666666666667,11.7862708948631,31.4572931407151,6.72850742220074,-0.00394991143415524,1,14.8333333333333,29.9
2.3,11.785887227961,31.6815105729839,6.72455834914575,-0.00394907305499004,1,14.8,29.9
2.33333333333333,11.7854985368922,31.9055963746005,6.72061011406265,-0.00394823508310438,1,14.7666666666667,29.9
2.36666666666667,11.7851048300417,32.1295505733821,6.71666271654396,-0.00394739751868656,1,14.7333333333333,29.9
2.4,11.784706115773,32.3533731971327,6.712716156182,-0.00394656036196039,1,14.7,29.9
2.43333333333333,11.7843024024481,32.577064273643,6.70877043256896,-0.00394572361303691,1,14.6666666666667,29.9
2.46666666666667,11.7838936984416,32.8006238306906,6.70482554529706,-0.00394488727190456,1,14.6333333333333,29.9
2.5,11.7834800121484,33.02405189604,6.70088149395866,-0.00394405133839992,1,14.6,29.9
2.53333333333333,11.7830613519827,33.2473484974423,6.69693827814643,-0.00394321581222634,1,14.5666666666667,29.9
2.56666666666667,11.7826377263721,33.4705136626357,6.69299589745343,-0.00394238069300279,1,14.5333333333333,29.9
2.6,11.7822091437483,33.6935474193452,6.68905435147311,-0.00394154598032515,1,14.5,29.9
2.63333333333333,11.7817756125377,33.9164497952824,6.68511363979932,-0.00394071167378574,1,14.4666666666667,29.9
2.66666666666667,11.7813371411545,34.139220818146,6.68117376202629,-0.00393987777302662,1,14.4333333333333,29.9
2.7,11.7808937379966,34.3618605156213,6.67723471774854,-0.00393904427774938,1,14.4,29.9
2.73333333333333,11.7804454114449,34.5843689153807,6.67329650656083,-0.00393821118771243,1,14.3666666666667,29.9
2.76666666666667,11.779992169866,34.8067460450831,6.66935912805812,-0.00393737850271325,1,14.3333333333333,29.9
2.8,11.7795340216155,35.0289919323744,6.66542258183553,-0.00393654622258666,1,14.3,29.9
2.83333333333333,11.7790709750428,35.2511066048876,6.66148686748837,-0.00393571434716389,1,14.2666666666667,29.9
2.86666666666667,11.7786030384941,35.4730900902422,6.65755198461209,-0.00393488287627886,1,14.2333333333333,29.9
2.9,11.778130220315,35.6949424160447,6.65361793280235,-0.00393405180973883,1,14.2,29.9
2.93333333333333,11.7776525288507,35.9166636098887,6.64968471165502,-0.00393322114733508,1,14.1666666666667,29.9
2.96666666666667,11.7771699724455,36.1382536993544,6.64575232076618,-0.00393239088883224,1,14.1333333333333,29.9
3,11.7766825594412,36.3597127120093,6.6418207597322,-0.00393156103398784,1,14.1,29.9
3.03333333333333,11.776190298175,36.5810406754073,6.63789002814965,-0.00393073158254431,1,14.0666666666667,29.9
3.06666666666667,11.7756931969782,36.8022376170897,6.6339601256154,-0.00392990253425207,1,14.0333333333333,29.9
3.1,11.7751912641746,37.0233035645845,6.63003105172654,-0.00392907388885977,1,14,29.9
3.13333333333333,11.7746845080807,37.2442385454066,6.62610280608041,-0.00392824564612582,1,13.9666666666667,29.9
3.16666666666667,11.7741729370051,37.4650425870579,6.62217538827459,-0.00392741780582284,1,13.9333333333333,29.9
3.2,11.7736565592499,37.6857157170272,6.61824879790688,-0.00392659036771548,1,13.9,29.9
3.23333333333333,11.7731353831112,37.9062579627904,6.61432303457528,-0.00392576333159056,1,13.8666666666667,29.9
3.26666666666667,11.7726094168795,38.1266693518101,6.61039809787806,-0.00392493669722516,1,13.8333333333333,29.9
3.3,11.7720786688413,38.346949911536,6.60647398741366,-0.00392411046440078,1,13.8,29.9
3.33333333333333,11.7715431472781,38.567099669405,6.60255070278077,-0.00392328463289271,1,13.7666666666667,29.9
3.36666666666667,11.7710028604674,38.7871186528405,6.59862824357829,-0.00392245920247714,1,13.7333333333333,29.9
3.4,11.7704586164993,39.0070068911177,6.59470659917086,-0.00392164440742881,1,13.7,29.9
3.43333333333333,11.7699138531624,39.2267644197493,6.59078576821487,-0.00392083095599105,1,13.6666666666667,29.9
3.46666666666667,11.7693713522904,39.4463912729303,6.58686576168669,-0.00392000652817526,1,13.6333333333333,29.9
