Time,x_ego,y_ego,velocity,acceleration,action,x_ped,y_ped
0,11.8,8.9,5,0,1,15.5,29.9
0.0333333333333333,11.800002440957,9.06660768883987,4.99642261869917,-0.00357738130082641,1,15.3694444444444,29.9
0.0666666666666667,11.8000181003957,9.23309265302348,4.9926476197977,-0.00377499890147615,1,15.2444444444444,29.9
0.1,11.8000562905291,9.39944929606501,4.9887314942227,-0.00391612557499599,1,15.125,29.9
0.133333333333333,11.8001223766037,9.56567362054341,4.98471470526732,-0.00401678895537838,1,15.0111111111111,29.9
0.166666666666667,11.8002184592561,9.73176277467575,4.980626213208,-0.00408849205932604,1,14.9027777777778,29.9
0.2,11.8003442120233,9.89771472781129,4.97648674410129,-0.00413946910670582,1,14.8,29.9
0.233333333333333,11.8004976988795,10.0635280382739,4.97231114116276,-0.00417560293852937,1,14.7027777777778,29.9
0.266666666666667,11.8006760671447,10.2292016871781,4.96811004663944,-0.00420109452331996,1,14.6111111111111,29.9
0.3,11.8008766897543,10.3947349590354,4.96389114321579,-0.00421890342365305,1,14.525,29.9
0.333333333333333,11.8010990204127,10.5601273551571,4.9596599443405,-0.00423119887528856,1,14.4444444444444,29.9
0.366666666666667,11.8013429863497,10.7253785323049,4.95542041025946,-0.00423953408104527,1,14.3694444444444,29.9
0.4,11.801610584997,10.8904882572291,4.9511754221661,-0.00424498809335017,1,14.3,29.9
0.433333333333333,11.8019051033403,11.055456374648,4.94692699471212,-0.00424842745398113,1,14.2361111111111,29.9
0.466666666666667,11.8022284297422,11.2202827862896,4.94267651727187,-0.00425047744025076,1,14.1777777777778,29.9
0.5,11.8025808636555,11.3849674354606,4.9384249769534,-0.00425154031847175,1,14.125,29.9
0.533333333333333,11.80296165165,11.5495102956763,4.93417308233833,-0.00425189461506914,1,14.0777777777778,29.9
0.566666666666667,11.8033694737599,11.7139113624389,4.92992135011373,-0.00425173222460007,1,14.0361111111111,29.9
0.6,11.8038028129706,11.8781706472552,4.92567016244294,-0.00425118767079447,1,14,29.9
0.633333333333333,11.8042601878169,12.0422881732635,4.92141980379385,-0.00425035864909074,1,13.9694444444444,29.9
0.666666666666667,11.8047402646993,12.2062639720273,4.91717048508992,-0.00424931870392342,1,13.9444444444444,29.9
0.7,11.8052418874512,12.3700980811838,4.9129223608563,-0.00424812423362564,1,13.925,29.9
0.733333333333333,11.8057640665272,12.5337905427119,4.90867554261051,-0.00424681824578688,1,13.9111111111111,29.9
0.766666666666667,11.8063058452478,12.6972832702811,4.90094229253721,-0.00773325007330072,1,13.9027777777778,29.9
0.8,11.8068658407352,12.8602587791351,4.8776466389989,-0.0232956535383124,3,13.9,29.9
0.833333333333333,11.8074420685618,13.0221118943515,4.83360311348097,-0.0440435255179299,3,13.9,29.9
0.866666666666667,11.8080325379659,13.182266263092,4.77572629400497,-0.0578768194759967,3,13.9,29.9
0.9,11.8086357213741,13.3403760175052,4.71093064504775,-0.0647956489572206,3,13.9,29.9
0.933333333333333,11.8092506337623,13.4963261211245,4.64615163215112,-0.0647790128966275,3,13.9,29.9
0.966666666666667,11.809876527685,13.6500884577861,4.57966925023486,-0.0664823819162592,3,13.9,29.9
1,11.8105127670976,13.801663676351,4.5149294497297,-0.0647398005051611,3,13.9,29.9
1.03333333333333,11.8111589011207,13.9511102347517,4.45195483638597,-0.0629746133437328,3,13.9,29.9
1.06666666666667,11.8118143989353,14.0984579096836,4.38900179087756,-0.0629530455084133,3,13.9,29.9
1.1,11.8124785204731,14.243678360242,4.3243266024816,-0.0646751883959542,3,13.9,29.9
1.13333333333333,11.8131504650656,14.3867432607841,4.2596735312455,-0.064653071236104,3,13.9,29.9
1.16666666666667,11.8138294569334,14.527653363592,4.19504273075864,-0.0646308004868539,3,13.9,29.9
1.2,11.8145146631331,14.6664094282891,4.13043434094705,-0.0646083898115934,3,13.9,29.9
1.23333333333333,11.8152053243551,14.803041284791,4.06759243642736,-0.0628419045196935,3,13.9,29.9
1.26666666666667,11.8159006868399,14.9375787608124,4.00477303565265,-0.062819400774706,3,13.9,29.9
1.3,11.8166000395199,15.070051316586,3.94369834838156,-0.0610746872710899,3,13.9,29.9
1.33333333333333,11.8173028546369,15.2005174704083,3.88439002796202,-0.059308320419539,3,13.9,29.9
1.36666666666667,11.8180086976262,15.3290357278376,3.8268259945445,-0.0575640334175191,3,13.9,29.9
1.4,11.8187172295443,15.4556642155923,3.77100583694914,-0.055820157595361,3,13.9,29.9
1.43333333333333,11.8194282009104,15.5804614063133,3.71695081892613,-0.0540550180230088,3,13.9,29.9
1.46666666666667,11.8201414320028,15.7034857539149,3.66463849836468,-0.0523123205614553,3,13.9,29.9
1.5,11.820856659442,15.8247666271218,3.61234603149959,-0.0522924668650848,3,13.9,29.9
1.53333333333333,11.8215736392369,15.944333379117,3.56179501802756,-0.0505510134720351,3,13.9,29.9
1.56666666666667,11.8222921246688,16.0622153478397,3.51126267442811,-0.0505323435994454,3,13.9,29.9
1.6,11.8230119998691,16.1784709236406,3.46421463000041,-0.0470480444277008,3,13.9,29.9
1.63333333333333,11.8237331426739,16.2931584788326,3.41718408299411,-0.0470305470062988,3,13.9,29.9
1.66666666666667,11.8244550084219,16.4062498983974,3.36844851097914,-0.048735572014972,3,13.9,29.9
1.7,11.8251771898189,16.5177457627156,3.32145215420654,-0.0469963567725999,3,13.9,29.9
1.73333333333333,11.8258994245401,16.6276753467185,3.27447263294699,-0.0469795212595496,3,13.9,29.9
1.76666666666667,11.8266213135954,16.7360392145384,3.22750985118508,-0.0469627817619114,3,13.9,29.9
1.8,11.8273426199378,16.8428666267448,3.18228588559292,-0.0452239655921645,3,13.9,29.9
1.83333333333333,11.8280631199144,16.9481868351064,3.13707833649189,-0.04520754910103,3,13.8991319444444,29.9
1.86666666666667,11.8287824471003,17.0520003805475,3.09188703902814,-0.0451912974637447,3,13.8965277777778,29.9
1.9,11.8295002381041,17.1543077981659,3.04671183918115,-0.0451751998469887,3,13.8921875,29.9
1.93333333333333,11.8302162926686,17.2551386841247,3.00329651876097,-0.0434153204201868,3,13.8861111111111,29.9
1.96666666666667,11.8309304125217,17.3545226268355,2.95989677608813,-0.0433997426728361,3,13.8782986111111,29.9
2,11.8316425739666,17.4525175456976,2.91995663502312,-0.0399401410650095,3,13.86875,29.9
2.03333333333333,11.8323531143174,17.5492391141656,2.8834972619058,-0.0364593731173164,3,13.8574652777778,29.9
2.06666666666667,11.833062421695,17.6448033465497,2.85051786224406,-0.0329793996617398,3,13.8444444444444,29.9
2.1,11.8337707715519,17.739297164086,2.81927361098911,-0.0312442512549582,3,13.8296875,29.9
2.13333333333333,11.834478507522,17.8328074609556,2.79150771186106,-0.0277658991280432,3,13.8131944444444,29.9
2.16666666666667,11.8351860399551,17.925421102634,2.76547535015212,-0.0260323617089386,3,13.7949652777778,29.9
2.2,11.8358932986172,18.017138456461,2.73773152905815,-0.0277438210939738,3,13.775,29.9
2.23333333333333,11.8366000628395,18.1079311703345,2.70999812979631,-0.0277333992618449,3,13.7532986111111,29.9
2.26666666666667,11.8373062956369,18.1977995844582,2.68227490560986,-0.0277232241864493,3,13.7298611111111,29.9
2.3,11.8380119440093,18.2867440314193,2.65456165197432,-0.0277132536355342,3,13.7046875,29.9
2.33333333333333,11.838717113371,18.3747935404516,2.62858033039368,-0.0259813215806379,3,13.6777777777778,29.9
2.36666666666667,11.8394216840211,18.4619484307707,2.6008863019896,-0.0276940284040874,3,13.6491319444444,29.9
2.4,11.8401253059907,18.5481803156957,2.57320167938691,-0.0276846226026843,3,13.61875,29.9
2.43333333333333,11.8408277789734,18.6334895104612,2.54552639433753,-0.0276752850493822,3,13.5866319444444,29.9
2.46666666666667,11.8415290677501,18.7179050316289,2.519582545266,-0.0259438490715285,3,13.5527777777778,29.9
2.5,11.8422291225821,18.801455891161,2.4936477715656,-0.0259347737004028,3,13.5171875,29.9
2.53333333333333,11.8429274940227,18.8841136913651,2.46599982804584,-0.0276479435197636,3,13.4798611111111,29.9
2.56666666666667,11.8436237319107,18.965850034826,2.43836099482978,-0.0276388332160549,3,13.4407986111111,29.9
2.6,11.8443175915097,19.0466652282881,2.41073133831704,-0.027629656512743,3,13.4,29.9
2.63333333333333,11.8450088398675,19.1265595793333,2.38311090552869,-0.0276204327883454,3,13.3574652777778,29.9
2.66666666666667,11.8456972597506,19.2055333959626,2.35549972248452,-0.0276111830441761,3,13.3131944444444,29.9
2.7,11.8463828620597,19.2836156883064,2.32961993676721,-0.025879785717307,3,13.2671875,29.9
2.73333333333333,11.8470654675724,19.3608067606047,2.30202705006677,-0.0275928867004422,3,13.2194444444444,29.9
2.76666666666667,11.8477444875839,19.4370495118809,2.27272113685939,-0.029305913207375,3,13.1699652777778,29.9
2.8,11.8484197652066,19.5123442709362,2.24515132432697,-0.027569812532426,3,13.11875,29.9
2.83333333333333,11.8490913727303,19.5867213942999,2.21769254622668,-0.0274587781002857,3,13.0657986111111,29.9
2.86666666666667,11.8497592124199,19.6601877135866,2.19053565718283,-0.0271568890438498,3,13.0111111111111,29.9
2.9,11.8504232419227,19.7327565300349,2.1638754812353,-0.0266601759475336,3,12.9546875,29.9
2.93333333333333,11.8510832537771,19.8044191063365,2.13619929227255,-0.0276761889627486,3,12.8965277777778,29.9
2.96666666666667,11.8517393270982,19.8752029684081,2.11118918394679,-0.0250101083257546,3,12.8366319444444,29.9
3,11.8523915954888,19.9451418724785,2.08549911045119,-0.0256900734956056,3,12.775,29.9
3.03333333333333,11.8530399823511,20.014241520524,2.06083025744703,-0.0246688530041612,3,12.7116319444444,29.9
3.06666666666667,11.8536848661701,20.0825638198512,2.03884287223688,-0.0219873852101466,3,12.6465277777778,29.9
3.1,11.8543266206562,20.1501680882796,2.01773839903294,-0.0211044732039372,3,12.5796875,29.9
3.13333333333333,11.8549653909561,20.2170828535605,1.99746485324429,-0.0202735457886505,3,12.5111111111111,29.9
3.16666666666667,11.8556013236024,20.2833348950479,1.97796398977754,-0.0195008634667524,3,12.4407986111111,29.9
3.2,11.8562343243378,20.3489201163065,1.95744442120617,-0.0205195685713697,3,12.36875,29.9
3.23333333333333,11.8568645223943,20.4138607994694,1.93927879244661,-0.0181656287595622,3,12.2949652777778,29.9
3.26666666666667,11.8574922683399,20.4782054752059,1.92167633142878,-0.0176024610178305,2,12.2194444444444,29.9
3.3,11.8581176674743,20.5419722668223,1.90460078198027,-0.017075549448504,2,12.1421875,29.9
3.33333333333333,11.8587408191548,20.6051781631035,1.88801732780617,-0.016583454174107,2,12.0631944444444,29.9
3.36666666666667,11.8593618151787,20.6678390445127,1.87189599496139,-0.0161213328447767,2,11.9824652777778,29.9
3.4,11.8599807397307,20.7299698535565,1.85620698223908,-0.0156890127223066,2,11.9,29.9
3.43333333333333,11.8605976660852,20.7915843435115,1.84091247528051,-0.0152945069585744,2,11.8157986111111,29.9
3.46666666666667,11.8612126590346,20.8526954633942,1.82600679563645,-0.0149056796440614,2,11.7298611111111,29.9
3.5,11.8618257816334,20.9133162000694,1.81148538016818,-0.0145214154682722,2,11.6421875,29.9
3.53333333333333,11.86243658396,20.9734011031644,1.79385326952302,-0.017632110645152,2,11.5527777777778,29.9
3.56666666666667,11.8630451047378,21.0329617195627,1.78002483110519,-0.0138284384178373,2,11.4616319444444,29.9
3.6,11.8636518760166,21.0920666779793,1.76651012784585,-0.0135147032593335,2,11.36875,29.9
3.63333333333333,11.86425691792,21.1507260819656,1.75328893038131,-0.0132211974645473,2,11.2741319444444,29.9
3.66666666666667,11.8648602473641,21.2089494512429,1.74034616302962,-0.0129427673516893,2,11.1777777777778,29.9
3.7,11.8654618804937,21.266745868544,1.72767047607319,-0.012675686956426,2,11.0796875,29.9
3.73333333333333,11.8660618345956,21.3241240856558,1.71525320746354,-0.0124172686096498,2,10.9798611111111,29.9
3.76666666666667,11.866659605496,21.3810348613902,1.699624872382,-0.015628335081538,2,10.8782986111111,29.9
3.8,11.8672552123546,21.4374868137436,1.68772419243367,-0.0119006799483272,2,10.775,29.9
3.83333333333333,11.8678492007764,21.4935463582731,1.6760793000959,-0.0116448923377768,2,10.6699652777778,29.9
3.86666666666667,11.8684415961558,21.5492218909001,1.66468265627611,-0.0113966438197866,2,10.5631944444444,29.9
3.9,11.8690324292997,21.6045215828439,1.65352823566433,-0.0111544206117775,2,10.4546875,29.9
3.93333333333333,11.8696217365078,21.659453423425,1.64261109388646,-0.0109171417778697,2,10.3444444444444,29.9
3.96666666666667,11.870209559121,21.7140252505208,1.63192705206949,-0.0106840418169694,2,10.2324652777778,29.9
4,11.8707959426627,21.7682447720415,1.62147246716607,-0.0104545849034268,2,10.11875,29.9
4.03333333333333,11.8713809357141,21.8221195808789,1.61124406503811,-0.0102284021279562,2,10.0032986111111,29.9
4.06666666666667,11.8719645886626,21.8756571651208,1.60123881954004,-0.010005245498075,2,9.88611111111111,29.9
4.1,11.8725469524584,21.928864914837,1.59145386533913,-0.00978495420091141,2,9.7671875,29.9
4.13333333333333,11.8731280774903,21.9817501263919,1.58188643545921,-0.0095674298799171,2,9.64652777777778,29.9
4.16666666666667,11.8737074576927,22.0342622548084,1.56906950425435,-0.0128169312048543,2,9.52413194444444,29.9
4.2,11.8742851345149,22.0864085528429,1.55993574947729,-0.00913375477706246,2,9.4,29.9
4.23333333333333,11.8748616974498,22.1382538400614,1.55100695987412,-0.00892878960316712,2,9.27413194444444,29.9
4.26666666666667,11.8754371756456,22.1898047395614,1.54227111131205,-0.00873584856207676,2,9.14652777777778,29.9
4.3,11.8760115951971,22.2410675210868,1.53371888302628,-0.00855222828577129,2,9.0171875,29.9
4.33333333333333,11.87658498048,22.2920481782317,1.52534292321526,-0.00837595981102091,2,8.88611111111111,29.9
4.36666666666667,11.8771587770086,22.3428966499743,1.52578355912717,0.000440635911912457,2,8.75329861111111,29.9
4.4,11.8777370162411,22.3940215637859,1.54191687594879,0.0161333168216253,2,8.61875,29.9
4.43333333333333,11.8783223527048,22.4456845472731,1.55805386946253,0.0161369935137388,2,8.48246527777778,29.9
4.46666666666667,11.8789149181528,22.4978842280913,1.57410994725296,0.0160560777904237,2,8.34444444444444,29.9
4.5,11.8795147614873,22.550616856412,1.59002519611069,0.0159152488577361,2,8.2046875,29.9
4.53333333333333,11.8801214949729,22.6038768800849,1.60574857165378,0.0157233755430846,2,8.06319444444444,29.9
4.56666666666667,11.8807347093302,22.6576571772879,1.62123901995914,0.0154904483053684,2,7.91996527777778,29.9
4.6,11.8813541208136,22.7119495051763,1.63646980197886,0.0152307820197155,2,7.775,29.9
4.63333333333333,11.8819795789965,22.7667449155136,1.65142473696456,0.0149549349857041,2,7.62829861111111,29.9
4.66666666666667,11.8826110623451,22.8220340545206,1.66609521425846,0.0146704772938993,2,7.47986111111111,29.9
4.7,11.8832486638352,22.8778073767882,1.68047801422467,0.0143827999662089,2,7.3296875,29.9
4.73333333333333,11.8838925693197,22.934055296431,1.69457371832073,0.0140957040960619,2,7.17777777777778,29.9
4.76666666666667,11.8845430314783,22.9907682925223,1.7083855465615,0.01381182824077,2,7.02413194444444,29.9
4.8,11.8852003420121,23.0479369813217,1.72191850552128,0.013532958959771,2,6.86875,29.9
4.83333333333333,11.8858648043722,23.1055521644663,1.73517876390549,0.0132602583842152,2,6.71163194444444,29.9
4.86666666666667,11.8865367088109,23.1636048598416,1.74817319735606,0.0129944334505687,2,6.55277777777778,29.9
4.9,11.8872163127898,23.2220864883584,1.76093387987117,0.0127606825151139,2,6.3921875,29.9
4.93333333333333,11.8879038708993,23.2809933351751,1.77378749307099,0.012853613199818,2,6.22986111111111,29.9
4.96666666666667,11.8885997715964,23.3403405635423,1.78752313480478,0.0137356417337848,2,6.06579861111111,29.9
5,11.8893046722092,23.4001752140169,1.80323329761307,0.0157101628082894,2,5.9,29.9
5.03333333333333,11.8900195804016,23.460583221116,1.82214293154296,0.0189096339298962,4,5.9,29.9
5.06666666666667,11.8907459051979,23.521692710103,1.84553278331159,0.0233898517686306,4,5.9,29.9
5.1,11.8914854563915,23.5836717263603,1.87447037660364,0.028937593292045,4,5.9,29.9
5.13333333333333,11.8922403727235,23.6467187973355,1.90973340249993,0.0352630258962949,4,5.9,29.9
5.16666666666667,11.8930128706908,23.711054270046,1.95184054809342,0.0421071455934914,4,5.9,29.9
5.2,11.893804642057,23.7769107308495,2.00101895071089,0.0491784026174629,4,5.9,29.9
5.23333333333333,11.8946174649706,23.844524757138,2.05728979698883,0.0562708462779424,4,5.9,29.9
5.26666666666667,11.8954534151529,23.9141304649614,2.12048193997827,0.0631921429894433,4,5.9,29.9
5.3,11.8963146130174,23.9859527203853,2.19020808085801,0.0697261408797347,4,5.9,29.9
5.33333333333333,11.8972025076026,24.0601998351193,2.26587336445432,0.0756652835963143,4,5.9,29.9
5.36666666666667,11.898118637667,24.1370584493137,2.34679160634329,0.0809182418889725,4,5.9,29.9
5.4,11.8990648932371,24.2166917961921,2.43225045054627,0.0854588442029733,4,5.9,29.9
5.43333333333333,11.9000434893209,24.2992393911114,2.52154464756623,0.0892941970199628,4,5.9,29.9
5.46666666666667,11.9010568872979,24.3848177654922,2.61400378578825,0.0924591382220181,4,5.9,29.9
5.5,11.902107646352,24.473521889096,2.70900566312719,0.0950018773389441,4,5.9,29.9
5.53333333333333,11.9031982567305,24.5654269184854,2.80598485579654,0.0969791926693464,4,5.9,29.9
5.56666666666667,11.9043309987647,24.6605901737981,2.90443628763127,0.0984514318347305,4,5.9,29.9
5.6,11.9055078330305,24.7590531413003,3.00391225935108,0.0994759717198144,4,5.9,29.9
5.63333333333333,11.9067303207953,24.8608425962465,3.10396704939471,0.100054790043623,4,5.9,29.9
5.66666666666667,11.9079995768533,24.9659707944336,3.20419366773296,0.100226618338255,4,5.9,29.9
5.7,11.9093162881704,25.0744379317672,3.30427427059997,0.100080602867008,4,5.9,29.9
5.73333333333333,11.9106807696864,25.1862349125483,3.403967239812,0.0996929692120352,4,5.9,29.9
5.76666666666667,11.9120930395628,25.3013456483992,3.503091661057,0.0991244212449964,4,5.9,29.9
5.8,11.9135529029925,25.41974878957,3.60151043388455,0.0984187728275505,4,5.9,29.9
5.83333333333333,11.9150600361182,25.5414189757278,3.69911884372144,0.0976084098368917,4,5.9,29.9
5.86666666666667,11.9166140586953,25.6663273486123,3.79579171067336,0.0966728669519159,4,5.9,29.9
5.9,11.9182145708785,25.7944398083972,3.89136276580481,0.0955710551314519,4,5.9,29.9
5.93333333333333,11.9198612062164,25.9257178944235,3.98573986598301,0.0943771001782014,4,5.9,29.9
5.96666666666667,11.9215536847555,26.0601210863505,4.07888711591995,0.0931472499369375,4,5.9,29.9
6,11.9232918399471,26.1976082959469,4.1708033270669,0.0919162111469474,4,5.9,29.9
6.03333333333333,11.9250756233759,26.338138766352,4.26150759791516,0.0907042708482582,4,5.9,29.9
6.06666666666667,11.9269050922608,26.4816725392178,4.35102568582955,0.089518087914394,4,5.9,29.9
6.1,11.928780382962,26.6281704179242,4.43937806583817,0.0883523800086206,4,5.9,29.9
6.13333333333333,11.9307016810987,26.7775939318104,4.52658880995476,0.0872107441165868,4,5.9,29.9
6.16666666666667,11.9326691930609,26.9299053360375,4.61267230789326,0.0860834979385077,4,5.9,29.9
6.2,11.9346830976592,27.0850656268781,4.69749065309894,0.0848183452056803,4,5.9,29.9
6.23333333333333,11.9367434486542,27.2430280698866,4.78081462715833,0.0833239740593879,4,5.9,29.9
6.26666666666667,11.9388502154836,27.4037424221485,4.86261087090496,0.0817962437466315,4,5.9,29.9
6.3,11.9410032897372,27.5671557645361,4.94275861071494,0.0801477398099752,4,5.9,29.9
6.33333333333333,11.9432024777753,27.7332117300334,5.02117869159473,0.0784200808797912,4,5.9,29.9
6.36666666666667,11.9454475207301,27.90185162187,5.09781732537152,0.0766386337767901,4,5.9,29.9
6.4,11.9477381399545,28.0730173656223,5.17278564936533,0.0749683239938124,4,5.9,29.9
6.43333333333333,11.9500741048825,28.2466561513527,5.24623621707403,0.0734505677086998,4,5.9,29.9
6.46666666666667,11.952455216619,28.4227184724438,5.31823104497794,0.0719948279039064,4,5.9,29.9
6.5,11.9548812919406,28.6011563823875,5.38879521468696,0.0705641697090202,4,5.9,29.9
6.53333333333333,11.9573521532212,28.7819224255416,5.45794284960102,0.0691476349140556,4,5.9,29.9
6.56666666666667,11.9598676165332,28.9649686200398,5.52561242864567,0.0676695790446518,4,5.9,29.9
6.6,11.9624274639056,29.1502443823752,5.59172731662667,0.0661148879809996,4,5.9,29.9
