Time,x_ego,y_ego,velocity,acceleration,action,x_ped,y_ped
0,11.8,15.9,5,0,1,15.5,29.9
0.0333333333333333,11.8,16.0666076888419,4.99642261439338,-0.0035773856066168,1,15.3694444444444,29.9
0.0666666666666667,11.8,16.2330926531145,4.99264756783477,-0.00377504655861216,1,15.2444444444444,29.9
0.1,11.8,16.399449296924,4.98873130122091,-0.00391626661385835,1,15.125,29.9
0.133333333333333,11.8,16.5656736245138,4.98471426828108,-0.00401703293983147,1,15.0111111111111,29.9
0.166666666666667,11.8,16.7317627870126,4.98062546389497,-0.00408880438611448,1,14.9027777777778,29.9
0.2,11.8,16.8977147575669,4.97648566969706,-0.00413979419790333,1,14.8,29.9
0.233333333333333,11.8,17.063528098494,4.97230978036584,-0.00417588933122204,1,14.7027777777778,29.9
0.266666666666667,11.8,17.2292017943893,4.96810847105553,-0.00420130931030815,1,14.6111111111111,29.9
0.3,11.8,17.3947351325064,4.96388939262275,-0.00421907843277847,1,14.525,29.9
0.333333333333333,11.8,17.5601276170202,4.95965802839236,-0.00423136423039949,1,14.4444444444444,29.9
0.366666666666667,11.8,17.7253789075748,4.95541830829244,-0.00423972009991047,1,14.3694444444444,29.9
0.4,11.8,17.8904887752388,4.95117304903021,-0.00424525926223307,1,14.3,29.9
0.433333333333333,11.8,18.0554570709351,4.94692426953351,-0.00424877949670321,1,14.2361111111111,29.9
0.466666666666667,11.8,18.2202837028143,4.94267341695966,-0.00425085257384605,1,14.1777777777778,29.9
0.5,11.8,18.3849686200364,4.93842152859998,-0.00425188835968093,1,14.125,29.9
0.533333333333333,11.8,18.5495118011469,4.93416934785826,-0.00425218074171951,1,14.0777777777778,29.9
0.566666666666667,11.8,18.7139132457448,4.92991740734792,-0.00425194051033717,1,14.0361111111111,29.9
0.6,11.8,18.8781729685112,4.9256660884612,-0.00425131888672592,1,14,29.9
0.633333333333333,11.8,19.0422909949291,4.92141566410698,-0.00425042435422096,1,13.9694444444444,29.9
0.666666666666667,11.8000024048186,19.206267358214,4.91716633365635,-0.00424933045062481,1,13.9444444444444,29.9
0.7,11.8000184557433,19.3701020970292,4.91291828301571,-0.00424805064064593,1,13.925,29.9
0.733333333333333,11.8000606671276,19.5337952533647,4.90867170887055,-0.00424657414515917,1,13.9111111111111,29.9
0.766666666666667,11.8001399678309,19.6973468702602,4.90442678197481,-0.0042449268957423,1,13.9027777777778,29.9
0.8,11.8002652942015,19.860756989684,4.90018361787896,-0.0042431640958478,1,13.9,29.9
0.833333333333333,11.8004436756731,20.0240256509467,4.89594226966504,-0.00424134821391764,1,13.9,29.9
0.866666666666667,11.8006797681626,20.1871238243455,4.88995876523216,-0.00598350443288354,1,13.9,29.9
0.9,11.8009735118729,20.3498204769183,4.87185687399883,-0.0181018912333233,3,13.9,29.9
0.933333333333333,11.801319273493,20.5116255717954,4.83647202005002,-0.0353848539488117,3,13.9,29.9
0.966666666666667,11.8017092233349,20.6718475269875,4.77687557949343,-0.059596440556593,3,13.9,29.9
1,11.8021347610937,20.8295925464822,4.68786300194579,-0.0890125775476376,3,13.9,29.9
1.03333333333333,11.8025874491096,20.984226824905,4.59023763814242,-0.0976253638033704,3,13.9,29.9
1.06666666666667,11.8030597007719,21.1355781715846,4.49089305261693,-0.0993445855254862,3,13.9,29.9
1.1,11.8035447754852,21.2835610030876,4.38813245498879,-0.10276059762815,3,13.9,29.9
1.13333333333333,11.8040369436504,21.4281189045391,4.28540294156825,-0.102729513420532,3,13.9,29.9
1.16666666666667,11.8045310024876,21.5691664698853,4.17751802039334,-0.107884921174915,3,13.9,29.9
1.2,11.8050211179965,21.7066183596392,4.06966757421494,-0.107850446178396,3,13.9,29.9
1.23333333333333,11.8055030579414,21.8404466871399,3.96010854902211,-0.109559025192834,3,13.9,29.9
1.26666666666667,11.8059745970007,21.9706235979773,3.85058553440989,-0.109523014612215,3,13.9,29.9
1.3,11.8064352914231,22.0971503252965,3.74109882935219,-0.1094867050577,3,13.9,29.9
1.33333333333333,11.8068860122367,22.2200281143766,3.63164865255864,-0.109450176793557,3,13.9,29.9
1.36666666666667,11.8073285358297,22.3392872829854,3.52397918243605,-0.107669470122585,3,13.9,29.9
1.4,11.8077651395305,22.4550155526671,3.41979085958126,-0.10418832285479,3,13.9,29.9
1.43333333333333,11.8081980441674,22.5673006322683,3.3173832466735,-0.102407612907762,3,13.9,29.9
1.46666666666667,11.8086289326146,22.6761728082186,3.21501239508037,-0.102370851593127,3,13.9,29.9
1.5,11.8090587138663,22.7816042215497,3.11093447945051,-0.104077915629862,3,13.9,29.9
1.53333333333333,11.8094875730601,22.8835670077243,3.00689364787398,-0.104040831576535,3,13.9,29.9
1.56666666666667,11.8099150676907,22.9820623651139,2.90288979961265,-0.104003848261323,3,13.9,29.9
1.6,11.8103401559929,23.0770914881715,2.79892258745225,-0.103967212160403,3,13.9,29.9
1.63333333333333,11.8107614471972,23.1686846330738,2.6967354064178,-0.102187181034452,3,13.9,29.9
1.66666666666667,11.8111772062476,23.2568429814676,2.59283953226996,-0.10389587414784,3,13.9,29.9
1.7,11.8115856120884,23.3415677091228,2.4907222991199,-0.102117233150061,3,13.9,29.9
1.73333333333333,11.8119850801869,23.4229177529371,2.39036120520423,-0.100361093915664,3,13.9,29.9
1.76666666666667,11.8123741075389,23.5009229702898,2.29003347619625,-0.100327729007987,3,13.9,29.9
1.8,11.8127513357328,23.5755846602194,2.1897762281275,-0.100257248068743,3,13.9,29.9
1.83333333333333,11.8131157827612,23.6469420878964,2.09196137714742,-0.0978148509800838,3,13.8991319444444,29.9
1.86666666666667,11.8134670181296,23.7151240265027,1.99935817359643,-0.0926032035509869,3,13.8965277777778,29.9
1.9,11.8138049231802,23.7802828879758,1.91059630062592,-0.0887618729705086,3,13.8921875,29.9
1.93333333333333,11.81412939942,23.8425189814297,1.82397905468626,-0.0866172459396608,3,13.8861111111111,29.9
1.96666666666667,11.8144407422252,23.9019892119559,1.7446202112488,-0.0793588434374624,3,13.8782986111111,29.9
2,11.8147397263012,23.9589333936251,1.6723839409923,-0.0722362702564994,3,13.86875,29.9
2.03333333333333,11.8150270472658,24.013528207798,1.60363526612519,-0.06874867486711,3,13.8574652777778,29.9
2.06666666666667,11.8153032966542,24.0658881147183,1.53827193340429,-0.0653633327208978,3,13.8444444444444,29.9
2.1,11.8155690397769,24.1160954719719,1.47446106801016,-0.0638108653941283,3,13.8296875,29.9
2.13333333333333,11.8158247765538,24.1642002814126,1.41210462196297,-0.0623564460471948,3,13.8131944444444,29.9
2.16666666666667,11.8160710185033,24.2102498949683,1.35114001590495,-0.0609646060580151,3,13.7949652777778,29.9
2.2,11.8163082578706,24.2542899182612,1.29151792459997,-0.0596220913049867,3,13.775,29.9
2.23333333333333,11.8165370557805,24.2963930503747,1.23491420912357,-0.0566037154763963,3,13.7532986111111,29.9
2.26666666666667,11.8167579045354,24.3366297900991,1.17952520381439,-0.0553890053091766,3,13.7298611111111,29.9
2.3,11.8169710980852,24.3750398782808,1.12530900836628,-0.0542161954481191,3,13.7046875,29.9
2.33333333333333,11.8171769639427,24.4116907281406,1.07397242326819,-0.0513365850980878,3,13.6777777777778,29.9
2.36666666666667,11.8173757515765,24.4466499656612,1.02381688575172,-0.0501555375164655,3,13.6491319444444,29.9
2.4,11.8175675224428,24.4799573615338,0.974865026808365,-0.0489518589433574,3,13.61875,29.9
2.43333333333333,11.8177522777609,24.5116532748024,0.927128868977372,-0.0477361578309934,3,13.5866319444444,29.9
2.46666666666667,11.8179299702057,24.5417782858237,0.880608658529229,-0.0465202104481428,3,13.5527777777778,29.9
2.5,11.818100638352,24.5704009652746,0.836972331704291,-0.0436363268249383,3,13.5171875,29.9
2.53333333333333,11.8182641676352,24.5975584374016,0.792681251005352,-0.0442910806989382,3,13.4798611111111,29.9
2.56666666666667,11.8184203033861,24.6232563617824,0.749388065141733,-0.0432931858636195,3,13.4407986111111,29.9
2.6,11.8185689127022,24.6475270996438,0.707040528597403,-0.0423475365443299,3,13.4,29.9
2.63333333333333,11.8187098727404,24.6704014673894,0.665597948870128,-0.0414425797272745,3,13.3574652777778,29.9
2.66666666666667,11.8188430808168,24.6919093006176,0.625049474721389,-0.0405484741487391,3,13.3131944444444,29.9
2.7,11.818968338143,24.7120521104073,0.583698914272965,-0.0413505604484247,3,13.2671875,29.9
2.73333333333333,11.8190857365629,24.7308896431628,0.546731846855926,-0.0369670674170384,3,13.2194444444444,29.9
2.76666666666667,11.8191955309493,24.7485105426299,0.510696921359842,-0.0360349254960848,3,13.1699652777778,29.9
2.8,11.8192977537572,24.7649456330005,0.475579042263666,-0.0351178790961751,3,13.11875,29.9
2.83333333333333,11.8193924675678,24.7802251979429,0.44136080868202,-0.0342182335816469,3,13.0657986111111,29.9
2.86666666666667,11.8194798925457,24.7944078450597,0.409754384847751,-0.0316064238342687,3,13.0111111111111,29.9
2.9,11.819560399296,24.8075793663193,0.380682256425147,-0.0290721284226041,3,12.9546875,29.9
2.93333333333333,11.819634373667,24.81982328019,0.354087051418232,-0.026595205006915,3,12.8965277777778,29.9
2.96666666666667,11.8197022172395,24.8312215683724,0.329934037241186,-0.0241530141770461,3,12.8366319444444,29.9
3,11.8197640793345,24.8417966051025,0.30468344316465,-0.0252505940765356,3,12.775,29.9
3.03333333333333,11.8198199846056,24.8515402270429,0.280043089311389,-0.0246403538532615,3,12.7116319444444,29.9
3.06666666666667,11.8198700954909,24.860472279822,0.255984467295246,-0.024058622016143,3,12.6465277777778,29.9
3.1,11.8199145770521,24.8686117293287,0.232483174599324,-0.0235012926959216,3,12.5796875,29.9
3.13333333333333,11.8199535946153,24.8759768018458,0.209522034653458,-0.0229611399458663,3,12.5111111111111,29.9
3.16666666666667,11.8199871835369,24.8825571861172,0.185412673604377,-0.0241093610490807,3,12.4407986111111,29.9
3.2,11.8200155167193,24.8883729175476,0.163649846995467,-0.0217628266089096,3,12.36875,29.9
3.23333333333333,11.8200389010521,24.8934739529424,0.14253381438267,-0.0211160326127973,3,12.2949652777778,29.9
3.26666666666667,11.8200575097021,24.8978820153606,0.122072393290612,-0.020461421092058,3,12.2194444444444,29.9
3.3,11.8200715112999,24.9016189477704,0.102265274713447,-0.0198071185771647,3,12.1421875,29.9
3.33333333333333,11.8200810680746,24.9047064811406,0.0831063554966724,-0.019158919216775,3,12.0631944444444,29.9
3.36666666666667,11.8200863344867,24.9071660692901,0.0645854633880965,-0.0185208921085759,3,11.9824652777778,29.9
3.4,11.8200875893647,24.9090478152146,0.0484306502029719,-0.0161548131851246,5,11.9,29.9
3.43333333333333,11.8200851012361,24.9104010830875,0.0328708089024637,-0.0155598413005082,5,11.8157986111111,29.9
3.46666666666667,11.8200788616074,24.9112161819557,0.016138941533691,-0.0167318673687726,5,11.7298611111111,29.9
3.5,11.8200687210279,24.9114541347871,0.000687911547511037,-0.01545102998618,5,11.6421875,29.9
3.53333333333333,11.8200561108735,24.9114239887231,0.000997555478751912,0.000309643931240875,5,11.5527777777778,29.9
3.56666666666667,11.8200422688906,24.9113938481639,0.000137161853385673,-0.000860393625366239,5,11.4616319444444,29.9
3.6,11.8200422688906,24.9113938481639,0.000215970527331339,7.88086739456653e-05,5,11.36875,29.9
3.63333333333333,11.8200422688906,24.9113938481639,0.000364997379575137,0.000149026852243799,5,11.2741319444444,29.9
3.66666666666667,11.8200422688906,24.9113938481639,0.00056358769745589,0.000198590317880753,5,11.1777777777778,29.9
3.7,11.8200422688906,24.9113938481639,0.000884457004548633,0.000320869307092743,5,11.0796875,29.9
3.73333333333333,11.8200456603,24.9121399292021,0.0436750326203003,0.0427905756157516,4,10.9798611111111,29.9
3.76666666666667,11.8200561381342,24.9144447261736,0.094570041749281,0.0508950091289807,4,10.8782986111111,29.9
3.8,11.8200742947373,24.9184352488201,0.144773993013279,0.0502039512639978,4,10.775,29.9
3.83333333333333,11.8201000425384,24.9240837365241,0.194025412784579,0.0492514197713005,4,10.6699652777778,29.9
3.86666666666667,11.8201332942454,24.9313552855108,0.242148459194451,0.0481230464098717,4,10.5631944444444,29.9
3.9,11.8201739848692,24.9402109323177,0.289087247072878,0.046938787878427,4,10.4546875,29.9
3.93333333333333,11.8202220979121,24.9506121107661,0.334895218083609,0.0458079710107305,4,10.3444444444444,29.9
3.96666666666667,11.8202776754893,24.9625220990378,0.379622409267232,0.0447271911836236,4,10.2324652777778,29.9
4,11.8203408176866,24.9759056816529,0.423309730258902,0.0436873209916702,4,10.11875,29.9
4.03333333333333,11.8204116792932,24.9907288666216,0.465991088401317,0.0426813581424142,4,10.0032986111111,29.9
4.06666666666667,11.8204904630819,25.0069585017105,0.507681081313076,0.0416899929117598,4,9.88611111111111,29.9
4.1,11.82057740817,25.0245614657805,0.54837520144897,0.0406941201358931,4,9.7671875,29.9
4.13333333333333,11.8206727786389,25.0435045380312,0.588075560865139,0.0397003594161691,4,9.64652777777778,29.9
4.16666666666667,11.8207768514272,25.0637546473828,0.626790433776649,0.0387148729115099,4,9.52413194444444,29.9
4.2,11.8208899020476,25.0852790585651,0.664532257259687,0.0377418234830382,4,9.4,29.9
4.23333333333333,11.8210121889394,25.1080455135014,0.701318755887907,0.0367864986282205,4,9.27413194444444,29.9
4.26666666666667,11.8211439397392,25.132022858166,0.737202104991152,0.0358833491032452,4,9.14652777777778,29.9
4.3,11.8212853406048,25.1571821878443,0.772265071613683,0.0350629666225303,4,9.0171875,29.9
4.33333333333333,11.8214365448331,25.1835017939449,0.806979459140376,0.0347143875266931,4,8.88611111111111,29.9
4.36666666666667,11.8215977667928,25.2109898097923,0.842658687104393,0.0356792279640171,4,8.75329861111111,29.9
4.4,11.821769391084,25.239708708419,0.881150886842043,0.0384921997376499,4,8.61875,29.9
4.43333333333333,11.8219520075152,25.2697819835312,0.924183491038787,0.043032604196744,4,8.48246527777778,29.9
4.46666666666667,11.8221463791515,25.3013847508011,0.973117335697098,0.0489338446583109,4,8.34444444444444,29.9
4.5,11.8223534060643,25.3347319938683,1.02900504251162,0.0558877068145244,4,8.2046875,29.9
4.53333333333333,11.8225741073663,25.370069391087,1.09262440619939,0.0636193636877629,4,8.06319444444444,29.9
4.56666666666667,11.8228095996098,25.4076621613066,1.16435527586617,0.0717308696667849,4,7.91996527777778,29.9
4.6,11.8230610729577,25.447782432839,1.24426811860051,0.0799128427343361,4,7.775,29.9
4.63333333333333,11.8233297920097,25.4907010412239,1.33221061001228,0.0879424914117726,4,7.62829861111111,29.9
4.66666666666667,11.8236170971726,25.5366791271592,1.42773898217715,0.0955283721648745,4,7.47986111111111,29.9
4.7,11.8239243952491,25.5859579098875,1.53012501019543,0.102386028018278,4,7.3296875,29.9
4.73333333333333,11.8242531608145,25.6387519890833,1.63851916353554,0.10839415334011,4,7.17777777777778,29.9
4.76666666666667,11.824604946207,25.6952466726772,1.75201986147548,0.11350069793994,4,7.02413194444444,29.9
4.8,11.8249813838614,25.7555969330849,1.86971356474827,0.117693703272791,4,6.86875,29.9
4.83333333333333,11.8253841723221,25.8199269908683,1.99064133713324,0.120927772384971,4,6.71163194444444,29.9
4.86666666666667,11.8258150221293,25.8883262459966,2.1136943746377,0.123053037504458,4,6.55277777777778,29.9
4.9,11.8262755975768,25.9608486153186,2.23788598509905,0.124191610461348,4,6.3921875,29.9
4.93333333333333,11.8267674729979,26.0375180194484,2.36239813971587,0.124512154616825,4,6.22986111111111,29.9
4.96666666666667,11.8272920790303,26.118333601377,2.48655997013625,0.124161830420376,4,6.06579861111111,29.9
5,11.827850646216,26.2032747887848,2.60987898174657,0.123319011610322,4,5.9,29.9
5.03333333333333,11.8284441347261,26.2923089731349,2.7321126375197,0.122233655773131,4,5.9,29.9
5.06666666666667,11.8290731861669,26.3853972205571,2.85310235259725,0.120989715077549,4,5.9,29.9
5.1,11.8297381563153,26.4824958874759,2.97272404915677,0.119621696559521,4,5.9,29.9
5.13333333333333,11.8304391847771,26.5835577414714,3.09088530218163,0.118161253024859,4,5.9,29.9
5.16666666666667,11.8311762778272,26.6885324902026,3.20748037607447,0.116595073892843,4,5.9,29.9
5.2,11.8319493800414,26.7973650522378,3.32233591510527,0.114855539030799,4,5.9,29.9
5.23333333333333,11.8327584431835,26.9099952700483,3.43533869351889,0.113002778413617,4,5.9,29.9
5.26666666666667,11.8336034937872,27.026360597514,3.54645215502853,0.111113461509644,4,5.9,29.9
5.3,11.8344846754391,27.1463980684365,3.65568264080626,0.109230485777725,4,5.9,29.9
5.33333333333333,11.8354022655334,27.2700454098459,3.76306407032577,0.107381429519513,4,5.9,29.9
5.36666666666667,11.8363566729336,27.3972418059,3.86864127327109,0.105577202945319,4,5.9,29.9
5.4,11.8373484111939,27.5279266723285,3.9723724242455,0.103731150974413,4,5.9,29.9
5.43333333333333,11.8383780608481,27.6620378566626,4.07423466786687,0.101862243621361,4,5.9,29.9
5.46666666666667,11.8394462535361,27.7995136665156,4.1742722588821,0.100037591015232,4,5.9,29.9
5.5,11.840553656175,27.9402945415821,4.27256482846793,0.0982925695858325,4,5.9,29.9
5.53333333333333,11.8417009543163,28.0843238705699,4.36920746142214,0.0966426329542118,4,5.9,29.9
5.56666666666667,11.8428888375457,28.231548250494,4.46429335922686,0.0950858978047142,4,5.9,29.9
5.6,11.8441179848194,28.3819168902679,4.55788235221987,0.0935889929930154,4,5.9,29.9
5.63333333333333,11.8453890504898,28.5353803918874,4.6500006510473,0.0921182988274287,4,5.9,29.9
5.66666666666667,11.8467026551163,28.6918896559599,4.74062914643151,0.0906284953842107,4,5.9,29.9
5.7,11.848059358881,28.8513919994754,4.82955126149462,0.0889221150631068,4,5.9,29.9
5.73333333333333,11.8494596387062,29.0138277004825,4.91665459489234,0.0871033333977262,4,5.9,29.9
5.76666666666667,11.8509039380795,29.1791363719865,5.00193478450093,0.085280189608584,4,5.9,29.9
5.8,11.8523926677001,29.3472563928973,5.08535300829865,0.0834182237977208,4,5.9,29.9
5.83333333333333,11.8539262171269,29.5181257770724,5.16691263835286,0.0815596300542083,4,5.9,29.9
5.86666666666667,11.8555049655508,29.691682966756,5.24666232268883,0.079749684335976,4,5.9,29.9
5.9,11.8571293166252,29.8678707124375,5.32479756851543,0.0781352458266014,4,5.9,29.9
5.93333333333333,11.8587997114441,30.0466371808586,5.40139469498073,0.076597126465292,4,5.9,29.9
5.96666666666667,11.8605165703691,30.2279284983049,5.47623071977042,0.0748360247896951,4,5.9,29.9
6,11.8622801698796,30.4116742643178,5.54848081903842,0.0722500992680013,4,5.9,29.9
6.03333333333333,11.8640904408056,30.597765115897,5.61663646156366,0.0681556425252419,4,5.9,29.9
6.06666666666667,11.8659466931557,30.7860238756242,5.67796937435806,0.0613329127943913,4,5.9,29.9
6.1,11.8678471102196,30.9761530839121,5.72819287909513,0.0502235047370698,4,5.9,29.9
6.13333333333333,11.8697886724109,31.1677348493951,5.76513141788315,0.0369385387880197,4,5.9,29.9
6.16666666666667,11.8717693045052,31.3604759503607,5.80158367646981,0.0364522585866682,4,5.9,29.9
6.2,11.8737910199562,31.5545465772024,5.84357926881746,0.0419955923476429,4,5.9,29.9
6.23333333333333,11.8758548774354,31.750016156946,5.88475287732429,0.0411736085068339,4,5.9,29.9
6.26666666666667,11.8779603921586,31.9467912224118,5.92147630322046,0.0367234258961684,4,5.9,29.9
6.3,11.880106142365,32.1446846690731,5.95157980599644,0.0301035027759813,4,5.9,29.9
6.33333333333333,11.8822900467621,32.3434486993035,5.9736240990589,0.0220442930624571,4,5.9,29.9
6.36666666666667,11.8845097924024,32.542821680956,5.98847775704028,0.0148536579813818,1,5.9,29.9
6.4,11.8867635127712,32.7425975664838,5.99810821664767,0.00963045960739528,1,5.9,29.9
6.43333333333333,11.8890498262148,32.9426281723019,6.0039888404109,0.00588062376322451,1,5.9,29.9
6.46666666666667,11.8913676934557,33.1428070696167,6.00717479177751,0.00318595136661148,1,5.9,29.9
6.5,11.8937163154461,33.3430577275372,6.00842142982184,0.00124663804432501,1,5.9,29.9
6.53333333333333,11.896095063405,33.543325012184,6.00826914320191,-0.000152286619922393,1,5.9,29.9
6.56666666666667,11.8985034318507,33.7435690901549,6.00710411954504,-0.00116502365687676,1,5.9,29.9
6.6,11.9009410076822,33.9437610542157,6.00520186681588,-0.00190225272915434,1,5.9,29.9
6.63333333333333,11.9034074506925,34.143879844753,6.0027539879133,-0.00244787890258191,1,5.9,29.9
6.66666666666667,11.90590246417,34.3439085819701,5.99985540909561,-0.00289857881769162,1,5.9,29.9
