Time,x_ego,y_ego,velocity,acceleration,action,x_ped,y_ped
0,11.8,8.9,5,0,1,15.5,29.9
0.0333333333333333,11.7999933569295,9.06660768882697,4.99642264628455,-0.00357735371545065,1,15.5,29.9
0.0666666666666667,11.7999507397231,9.23309265244046,4.99264795270227,-0.00377469358228133,1,15.5,29.9
0.1,11.7998468051455,9.39944929056194,4.9887327307045,-0.00391522199777139,1,15.5,29.9
0.133333333333333,11.7996669516127,9.56567359510653,4.98471750485773,-0.00401522584676695,1,15.5,29.9
0.166666666666667,11.7994054621554,9.73176269563867,4.98063101375243,-0.00408649110530224,1,15.5,29.9
0.2,11.7990632251381,9.89771453717934,4.97649362738352,-0.0041373863689067,1,15.5,29.9
0.233333333333333,11.7986455093421,10.0635276524682,4.972319859267,-0.00417376811651593,1,15.5,29.9
0.266666666666667,11.7981600782272,10.2292010003183,4.96812014082674,-0.00419971844026001,1,15.5,29.9
0.3,11.7976181483642,10.3947338524888,4.96390158046219,-0.00421856036455637,1,15.5,29.9
0.333333333333333,11.7970397878154,10.5601257212062,4.95966937873303,-0.0042322017291605,1,15.5,29.9
0.366666666666667,11.7964451193574,10.7253762933383,4.95542796382485,-0.00424141490817753,1,15.5,29.9
0.4,11.7958495639667,10.8904853751298,4.95118065797856,-0.00424730584629174,1,15.5,29.9
0.433333333333333,11.7952650031638,11.0554528547206,4.94692987809804,-0.00425077988051381,1,15.5,29.9
0.466666666666667,11.7946982529102,11.2202786702111,4.94267736189201,-0.00425251620603184,1,15.5,29.9
0.5,11.7941513955868,11.3849627890934,4.93842423746098,-0.00425312443103731,1,15.5,29.9
0.533333333333333,11.7936228472138,11.5495051965354,4.93417121726389,-0.00425302019708251,1,15.5,29.9
0.566666666666667,11.7931083902409,11.7139058889827,4.92991875205175,-0.00425246521214628,1,15.5,29.9
0.6,11.7926021261965,11.8781648709266,4.9256671371984,-0.00425161485335046,1,15.5,29.9
0.633333333333333,11.7920973344755,12.0422821533612,4.92141657796333,-0.00425055923506434,1,15.5,29.9
0.666666666666667,11.7915872300196,12.206257753076,4.91716722501389,-0.00424935294944184,1,15.5,29.9
0.7,11.7910656047994,12.3700916923649,4.91291919108281,-0.00424803393107975,1,15.5,29.9
0.733333333333333,11.7905273279327,12.5337839989554,4.90867255747014,-0.00424663361266564,1,15.5,29.9
0.766666666666667,11.7899686762306,12.6973347060279,4.90442737684265,-0.0042451806274979,1,15.5,29.9
0.8,11.7893874752277,12.8607438521885,4.90018367662851,-0.00424370021413534,1,15.5,29.9
0.833333333333333,11.7887830493827,13.0240114812519,4.89594146503651,-0.00424221159199778,1,15.5,29.9
0.866666666666667,11.7881560042498,13.1871376417236,4.89170073946962,-0.00424072556689126,1,15.5,29.9
0.9,11.7875073112414,13.3501223841639,4.88746154124411,-0.00423919822550811,1,15.5,29.9
0.933333333333333,11.7868365123596,13.5129657553468,4.88322389849433,-0.00423764274978478,1,15.5,29.9
0.966666666666667,11.7861436284442,13.6756678036696,4.87898778852851,-0.00423610996582102,1,15.5,29.9
1,11.7854294164179,13.8382285801121,4.87475319637769,-0.0042345921508149,1,15.5,29.9
1.03333333333333,11.7846949821332,14.0006481371993,4.87052011785842,-0.00423307851927035,1,15.5,29.9
1.06666666666667,11.7839414718681,14.1629265280916,4.86628855871642,-0.00423155914200457,1,15.5,29.9
1.1,11.7831698775147,14.3250638059341,4.86205853093609,-0.00423002778032711,1,15.5,29.9
1.13333333333333,11.7823809561133,14.48706002351,4.85783004823859,-0.00422848269750542,1,15.5,29.9
1.16666666666667,11.7815752388367,14.6489152331644,4.85360312247657,-0.00422692576201911,1,15.5,29.9
1.2,11.7807530914916,14.8106294869088,4.84937776172165,-0.00422536075492008,1,15.5,29.9
1.23333333333333,11.7799147881028,14.9722028365945,4.84515397000005,-0.00422379172159815,1,15.5,29.9
1.26666666666667,11.7790605682904,15.1336353340525,4.84093174816859,-0.00422222183146026,1,15.5,29.9
1.3,11.7781906633721,15.2949270311338,4.83671109530672,-0.00422065286186779,1,15.5,29.9
1.33333333333333,11.7773052906393,15.4560779796375,4.83249201008264,-0.00421908522407932,1,15.5,29.9
1.36666666666667,11.7764046262328,15.6170882311546,4.82827449171948,-0.00421751836316631,1,15.5,29.9
1.4,11.7754887723736,15.7779578368916,4.82405854038953,-0.00421595132994135,1,15.5,29.9
1.43333333333333,11.7745577341569,15.9386868475373,4.81984415706354,-0.00421438332599777,1,15.5,29.9
1.46666666666667,11.7736114160435,16.0992753132221,4.81563134299335,-0.0042128140701827,1,15.5,29.9
1.5,11.7726496408581,16.2597232835916,4.81142009907482,-0.00421124391852956,1,15.5,29.9
1.53333333333333,11.771672186961,16.4200308079785,4.80721042531755,-0.0042096737572761,1,15.5,29.9
1.56666666666667,11.7706788342606,16.5801979356345,4.80300232057076,-0.00420810474678657,1,15.5,29.9
1.6,11.7696694079094,16.7402247159665,4.79879578255823,-0.00420653801252779,1,15.5,29.9
1.63333333333333,11.7686443747196,16.9001112017795,4.79459075757364,-0.00420502498459641,1,15.5,29.9
1.66666666666667,11.7676062301132,17.0598574572288,4.7903872190842,-0.00420353848944188,1,15.5,29.9
1.7,11.7665578256119,17.2194635494228,4.78618515287514,-0.00420206620905184,1,15.5,29.9
1.73333333333333,11.7655037661212,17.3789295564788,4.7819845268819,-0.00420062599324211,1,15.5,29.9
1.76666666666667,11.7644495195487,17.5382555629941,4.77778539523718,-0.00419913164472607,1,15.5,29.9
1.8,11.7633992900444,17.6974416476156,4.77358780431238,-0.00419759092479577,1,15.5,29.9
1.83333333333333,11.7623577455651,17.8564878924283,4.76939176851362,-0.00419603579876426,1,15.5,29.9
1.86666666666667,11.761330094223,18.0153943831681,4.76519732124503,-0.00419444726858398,1,15.5,29.9
1.9,11.7603211624434,18.1741612033486,4.76100451917769,-0.00419280206733852,1,15.5,29.9
1.93333333333333,11.7593330505856,18.3327884195913,4.75681339095807,-0.00419112821962475,1,15.5,29.9
1.96666666666667,11.7583652257707,18.4912760816811,4.75262391446468,-0.00418947649338897,1,15.5,29.9
2,11.7574153353229,18.6496242275204,4.74843604734208,-0.00418786712260122,1,15.5,29.9
2.03333333333333,11.7564799595896,18.8078328880426,4.74424975023395,-0.00418629710812812,1,15.5,29.9
2.06666666666667,11.7555552397948,18.9659020913972,4.74006499777297,-0.00418475246097572,1,15.5,29.9
2.1,11.7546373573857,19.1238318660943,4.73588177952822,-0.00418321824475498,1,15.5,29.9
2.13333333333333,11.7537228694827,19.2816222431028,4.73170009563309,-0.00418168389512985,1,15.5,29.9
2.16666666666667,11.75280892007,19.439273257069,4.72751995121703,-0.00418014441605852,1,15.5,29.9
2.2,11.7518933509633,19.5967849468755,4.72334135200063,-0.00417859921639963,1,15.5,29.9
2.23333333333333,11.7509747343548,19.7541573557354,4.71916430180948,-0.00417705019115555,1,15.5,29.9
2.26666666666667,11.7500523439925,19.9113905309582,4.71498880180493,-0.00417550000454625,1,15.5,29.9
2.3,11.7491260779185,20.0684845234704,4.71081485086175,-0.00417395094318174,1,15.5,29.9
2.33333333333333,11.7481963438062,20.2254393871452,4.70664244649912,-0.00417240436262301,1,15.5,29.9
2.36666666666667,11.7472639184025,20.3822551779921,4.70247158588902,-0.00417086061010163,1,15.5,29.9
2.4,11.7463297943864,20.5389319532709,4.69830226662228,-0.00416931926674646,1,15.5,29.9
2.43333333333333,11.7453950296123,20.6954697706101,4.69413448707769,-0.00416777954458336,1,15.5,29.9
2.46666666666667,11.7444606138531,20.851868687221,4.68996824639815,-0.00416624067954086,1,15.5,29.9
2.5,11.7435273660174,21.008128759284,4.6858035442027,-0.00416470219545317,1,15.5,29.9
2.53333333333333,11.7425958704284,21.1642500415649,4.68164038022224,-0.00416316398046046,1,15.5,29.9
2.56666666666667,11.741666454846,21.3202325872799,4.6774787540238,-0.00416162619843519,1,15.5,29.9
2.6,11.7407392066911,21.4760764481886,4.67331866490516,-0.00416008911864552,1,15.5,29.9
2.63333333333333,11.7398140186684,21.6317816748641,4.66916011194473,-0.00415855296042977,1,15.5,29.9
2.66666666666667,11.738890651683,21.787348317067,4.66500309412877,-0.00415701781595512,1,15.5,29.9
2.7,11.7379688021175,21.9427764241461,4.66084761046964,-0.00415548365913043,1,15.5,29.9
2.73333333333333,11.7370481620947,22.0980660453975,4.65669366006437,-0.00415395040526878,1,15.5,29.9
2.76666666666667,11.7361284647059,22.2532172303336,4.6525412420905,-0.00415241797386923,1,15.5,29.9
2.8,11.7352095104273,22.4082300288406,4.64839035576758,-0.00415088632292182,1,15.5,29.9
2.83333333333333,11.7342911751098,22.5631044912253,4.6442410003178,-0.0041493554497789,1,15.5,29.9
2.86666666666667,11.7333734031748,22.7178406681746,4.64009317494502,-0.00414782537278224,1,15.5,29.9
2.9,11.7324561915146,22.8724386106595,4.63594687883343,-0.00414629611159434,1,15.5,29.9
2.93333333333333,11.731539569937,23.0268983698189,4.63180211115662,-0.00414476767680494,1,15.5,29.9
2.96666666666667,11.7306235830703,23.1812199968525,4.62765887108716,-0.00414324006945943,1,15.5,29.9
3,11.7297082769132,23.3354035429404,4.62351715780161,-0.00414171328555568,1,15.5,29.9
3.03333333333333,11.7287936912303,23.4894490591986,4.61937697048109,-0.00414018732051424,1,15.5,29.9
3.06666666666667,11.7278798572673,23.6433565966655,4.61523830830983,-0.00413866217126557,1,15.5,29.9
3.1,11.7269667991239,23.7971262063096,4.61110117047348,-0.00413713783634506,1,15.5,29.9
3.13333333333333,11.7260539640753,23.9507579418938,4.60696635589457,-0.00413481457891685,1,15.5,29.9
3.16666666666667,11.7251388234766,24.1042519464298,4.60283981672949,-0.00412653916507111,1,15.5,29.9
3.2,11.7242191570427,24.2576086621269,4.59873296845001,-0.00410684827948238,1,15.5,29.9
3.23333333333333,11.7232931192419,24.4108289540872,4.59465898843315,-0.0040739800168641,1,15.5,29.9
3.26666666666667,11.7223577752801,24.5639141025061,4.59062964440741,-0.00402934402573774,1,15.5,29.9
3.3,11.7214110815476,24.7168657392876,4.58665385078347,-0.0039757936239404,1,15.5,29.9
3.33333333333333,11.7204522750491,24.8696857484887,4.58273738375716,-0.00391646702630588,1,15.5,29.9
3.36666666666667,11.7194815791146,25.022376164212,4.57888318151023,-0.00385420224693789,1,15.5,29.9
3.4,11.7184998978286,25.1749390824773,4.57509183502659,-0.00379134648363344,1,15.5,29.9
3.43333333333333,11.7175085397983,25.3273765892126,4.57136205926608,-0.00372977576051436,1,15.5,29.9
3.46666666666667,11.7165089914047,25.4796907045599,4.56769117223157,-0.00367088703450413,1,15.5,29.9
3.5,11.7155027438817,25.631883339915,4.56407534204882,-0.0036158301827518,1,15.5,29.9
3.53333333333333,11.7144911663164,25.7839566966569,4.56060925408531,-0.00346608796351333,1,15.5,29.9
3.56666666666667,11.71347524834,25.9359408221405,4.55935801542446,-0.00125123866084476,1,15.5,29.9
3.6,11.7124550095654,26.0879784227622,4.56437163094904,0.00501361552457169,1,15.5,29.9
3.63333333333333,11.7114295356573,26.2403122718944,4.5771418454045,0.0127702144554629,1,15.5,29.9
3.66666666666667,11.710397530009,26.3931949706831,4.59716386317091,0.0200220177664105,4,15.5,29.9
3.7,11.7093575570321,26.5468526824392,4.62346301358062,0.0262991504097121,4,15.5,29.9
3.73333333333333,11.7083081404483,26.7014759690057,4.65491368196154,0.0314506683809208,4,15.5,29.9
3.76666666666667,11.7072478326799,26.8572184986803,4.69045701923129,0.0355433372697433,4,15.5,29.9
3.8,11.7061752628879,27.0142012326887,4.72919297394782,0.0387359547165351,4,15.5,29.9
3.83333333333333,11.7050891815982,27.172517763461,4.77037494822686,0.0411819742790414,4,15.5,29.9
3.86666666666667,11.7039885051776,27.3322387095073,4.81336499479148,0.0429900465646211,4,15.5,29.9
3.9,11.7028723490841,27.4934154916041,4.85766027677545,0.0442952819839633,4,15.5,29.9
3.93333333333333,11.701740031266,27.6560854051891,4.90290942609134,0.0452491493158957,4,15.5,29.9
3.96666666666667,11.7005910574676,27.82027587153,4.94886303099056,0.0459536048992204,4,15.5,29.9
4,11.69942509555,27.9860071230554,4.99533541699837,0.0464723860078049,4,15.5,29.9
4.03333333333333,11.698241939214,28.1532940972014,5.04219255544064,0.0468571384422729,4,15.5,29.9
4.06666666666667,11.6970414658117,28.3221479258998,5.08933776575587,0.0471452103152261,4,15.5,29.9
4.1,11.6958235959474,28.4925769751244,5.1367001606511,0.0473623948952309,4,15.5,29.9
4.13333333333333,11.6945882609123,28.6645874450849,5.18421231625058,0.0475121555994793,4,15.5,29.9
4.16666666666667,11.6933353901135,28.8381823251811,5.23174169035059,0.0475293741000087,4,15.5,29.9
4.2,11.6920649157355,29.0133593315461,5.27911566847374,0.0473739781231597,4,15.5,29.9
4.23333333333333,11.6907767752752,29.190110513888,5.32617224635024,0.0470565778764902,4,15.5,29.9
4.26666666666667,11.689470915093,29.3684226754133,5.37274254763358,0.0465703012833432,4,15.5,29.9
4.3,11.6881473124731,29.5482756313041,5.41859238566693,0.0458498380333552,4,15.5,29.9
4.33333333333333,11.6868059819072,29.729642803121,5.46358707960881,0.0449946939418773,4,15.5,29.9
4.36666666666667,11.6854469595044,29.9124946495202,5.50767393063019,0.0440868510213788,4,15.5,29.9
4.4,11.6840702944154,30.0968006269672,5.55084074734148,0.0431668167112864,4,15.5,29.9
4.43333333333333,11.682676043977,30.2825301618646,5.5930955154353,0.0422547680938203,4,15.5,29.9
4.46666666666667,11.6812635825125,30.4696531013212,5.63445192104032,0.0413564056050255,4,15.5,29.9
4.5,11.679829309604,30.6581392147982,5.67487149440115,0.0404195733608255,4,15.5,29.9
4.53333333333333,11.6783672143972,30.8479517987427,5.71392842350278,0.0390569291016325,4,15.5,29.9
4.56666666666667,11.6768706574216,31.0390310211462,5.75067239370077,0.0367439701979855,4,15.5,29.9
4.6,11.6753357334984,31.2312731054832,5.78334288307124,0.0326704893704726,4,15.5,29.9
4.63333333333333,11.6737616500137,31.4245030925563,5.80960415874041,0.0262612756691709,4,15.5,29.9
4.66666666666667,11.6721489360701,31.6186174299763,5.83997309375555,0.0303689350151428,4,15.5,29.9
4.7,11.6704961950949,31.8139193956277,5.87934058707067,0.039367493315118,4,15.5,29.9
4.73333333333333,11.6688036314162,32.0105749843352,5.92024135774077,0.0409007706701026,4,15.5,29.9
4.76666666666667,11.6670731438133,32.2085541402736,5.95820516472575,0.0379638069849824,4,15.5,29.9
4.8,11.6653075142248,32.4077106673353,5.9905663030685,0.0323611383427442,4,15.5,29.9
4.83333333333333,11.6635099589649,32.6078274420897,6.01557267458987,0.0250063715213678,4,15.5,29.9
4.86666666666667,11.6616838625354,32.8086453644101,6.0328461131676,0.0172734385777362,1,15.5,29.9
4.9,11.6598329158277,33.009934974363,6.04421225893213,0.0113661457645255,1,15.5,29.9
4.93333333333333,11.6579625493096,33.2115287327295,6.05133876703011,0.00712650809797744,1,15.5,29.9
4.96666666666667,11.6560777296279,33.4133063711169,6.05542004769103,0.00408128066092583,1,15.5,29.9
5,11.6541840413713,33.6151814760599,6.05731133691889,0.00189128922785375,1,15.5,29.9
5.03333333333333,11.6522866409162,33.8170918617809,6.05762464079269,0.000313303873801907,1,15.5,29.9
5.06666666666667,11.6503933742708,34.0189927007245,6.05679760094062,-0.000827039852068445,1,15.5,29.9
5.1,11.6485102521983,34.2208515365576,6.05514273301353,-0.00165486792708602,1,15.5,29.9
5.13333333333333,11.6466424957431,34.4226447432822,6.05288314413557,-0.0022595888779664,1,15.5,29.9
5.16666666666667,11.6447933627297,34.6243550824281,6.0501850363593,-0.00269810777626667,1,15.5,29.9
5.2,11.6429659653257,34.8259701466555,6.04717270420146,-0.00301233215783459,1,15.5,29.9
5.23333333333333,11.6411612173973,35.0274810386379,6.04393539227799,-0.00323731192347676,1,15.5,29.9
5.26666666666667,11.6393779784301,35.2288813728353,6.04053703507765,-0.00339835720033932,1,15.5,29.9
5.3,11.6376139083043,35.4301665662928,6.0370234513094,-0.00351358376825228,1,15.5,29.9
5.33333333333333,11.6358661203574,35.6313333309297,6.03342749082829,-0.00359596048110422,1,15.5,29.9
5.36666666666667,11.6341316355367,35.832379309557,6.02977271346124,-0.003654777367049,1,15.5,29.9
5.4,11.6324076709274,36.0333028146051,6.0260760183411,-0.00369669512013893,1,15.5,29.9
5.43333333333333,11.6306918064935,36.2341026404197,6.02234952456066,-0.00372649378044443,1,15.5,29.9
5.46666666666667,11.6289820703367,36.4347779283604,6.01860191821879,-0.00374760634186977,1,15.5,29.9
5.5,11.6272769719309,36.6353280698306,6.01483941907543,-0.00376249914336135,1,15.5,29.9
5.53333333333333,11.6255755006244,36.8357526365451,6.01106647570262,-0.0037729433728062,1,15.5,29.9
5.56666666666667,11.6238770972778,37.036051330318,6.00728626637205,-0.00378020933057677,1,15.5,29.9
5.6,11.6221816020511,37.236223946808,6.00350106039779,-0.00378520597425247,1,15.5,29.9
5.63333333333333,11.6204891808748,37.4362703492327,5.99971247870831,-0.00378858168948337,1,15.5,29.9
5.66666666666667,11.6188002355443,37.636190449217,5.99592168122566,-0.00379079748265365,1,15.5,29.9
5.7,11.6171153056331,37.8359841927831,5.99212950084751,-0.00379218037814599,1,15.5,29.9
5.73333333333333,11.6154349727386,38.0356515500985,5.98833653845399,-0.00379296239352023,1,15.5,29.9
5.76666666666667,11.6137597778273,38.2351925080139,5.9845432296349,-0.00379330881909201,1,15.5,29.9
5.8,11.6120901603915,38.434607064708,5.9807498911825,-0.00379333845240115,1,15.5,29.9
5.83333333333333,11.6104264242767,38.6338952259377,5.97695675341815,-0.00379313776434742,1,15.5,29.9
5.86666666666667,11.6087687303906,38.833057002501,5.97316398286473,-0.00379277055341465,1,15.5,29.9
5.9,11.6071171121694,39.0320924085991,5.96937169850827,-0.00379228435646262,1,15.5,29.9
5.93333333333333,11.605471506596,39.2310014608326,5.96557998386167,-0.00379171464659933,1,15.5,29.9
5.96666666666667,11.6038317922366,39.429784177615,5.96178889623937,-0.00379108762230107,1,15.5,29.9
