Time,x_ego,y_ego,velocity,acceleration,action,x_ped,y_ped
0,11.8,8.9,7,0,1,15.5,29.9
0.0333333333333333,11.8,9.13327037939431,6.99615577953002,-0.00384422046998356,1,15.5,29.9
0.0666666666666667,11.8,9.36640659881126,6.99196947109348,-0.00418630843653833,1,15.5,29.9
0.1,11.8,9.59940075527911,6.98769498718995,-0.00427448390352669,1,15.5,29.9
0.133333333333333,11.8,9.83225378528415,6.9834976545359,-0.00419733265404787,1,15.5,29.9
0.166666666666667,11.8,10.0649678802301,6.97935585456763,-0.00414179996826913,1,15.5,29.9
0.2,11.8,10.2975446186632,6.97525409491249,-0.00410175965514537,1,15.5,29.9
0.233333333333333,11.8,10.5299851399444,6.97118127319767,-0.00407282171482137,1,15.5,29.9
0.266666666666667,11.8,10.7622902687052,6.96712943294736,-0.00405184025031069,1,15.5,29.9
0.3,11.8,10.9944606040335,6.96309287213007,-0.00403656081728965,1,15.5,29.9
0.333333333333333,11.8,11.2264965833863,6.95906750439986,-0.00402536773020401,1,15.5,29.9
0.366666666666667,11.8,11.4583985283897,6.95505040137947,-0.00401710302039238,1,15.5,29.9
0.4,11.8,11.6901666776599,6.95103946463339,-0.00401093674607722,1,15.5,29.9
0.433333333333333,11.8,11.9218012103233,6.94703319054231,-0.00400627409108711,1,15.5,29.9
0.466666666666667,11.8,12.1533022628712,6.94303050173604,-0.00400268880626342,1,15.5,29.9
0.5,11.8,12.3846699412377,6.93903062623031,-0.00399987550573222,1,15.5,29.9
0.533333333333333,11.8,12.6159043294559,6.93503301077307,-0.00399761545723631,1,15.5,29.9
0.566666666666667,11.800000041859,12.8470054958598,6.93103725873979,-0.00399575203328606,1,15.5,29.9
0.6,11.8000003039784,13.0779734975296,6.92704308565548,-0.00399417308431005,1,15.5,29.9
0.633333333333333,11.8000017649563,13.308808383476,6.92305028791984,-0.00399279773563954,1,15.5,29.9
0.666666666666667,11.8000080636105,13.5395101969094,6.91905872212587,-0.00399156579396642,1,15.5,29.9
0.7,11.8000220702204,13.7700789768268,6.91506828558656,-0.00399043653931574,1,15.5,29.9
0.733333333333333,11.8000452613748,14.0005147591347,6.91107890166104,-0.00398938392551962,1,15.5,29.9
0.766666666666667,11.8000781353964,14.2308175774884,6.90709051269665,-0.00398838896438747,1,15.5,29.9
0.8,11.8001205844646,14.4609874639385,6.90310307630916,-0.00398743638748833,1,15.5,29.9
0.833333333333333,11.8001721799783,14.6910244494217,6.89911656241115,-0.00398651389800975,1,15.5,29.9
0.866666666666667,11.80023236193,14.9209285641175,6.89513095028432,-0.00398561212683468,1,15.5,29.9
0.9,11.8003005459213,15.1506998376966,6.89114622586473,-0.00398472441958564,1,15.5,29.9
0.933333333333333,11.8003761724367,15.3803382994859,6.88716237953537,-0.00398384632936288,1,15.5,29.9
0.966666666666667,11.800458724114,15.6098439785756,6.88317940454305,-0.00398297499232125,1,15.5,29.9
1,11.800547731336,15.8392169038873,6.87919729597558,-0.00398210856746584,1,15.5,29.9
1.03333333333333,11.8006427781862,16.0684571042155,6.87521605015008,-0.00398124582550619,1,15.5,29.9
1.06666666666667,11.8007435127214,16.2975646082519,6.87123566425955,-0.00398038589052696,1,15.5,29.9
1.1,11.8008496596613,16.5265394445991,6.86725613615947,-0.00397952810007673,1,15.5,29.9
1.13333333333333,11.8009610307766,16.7553816417774,6.86327746421858,-0.00397867194088874,1,15.5,29.9
1.16666666666667,11.8010775282903,16.9840912282298,6.8592996471953,-0.00397781702328004,1,15.5,29.9
1.2,11.8011991385917,17.2126682323276,6.85532268412708,-0.00397696306822493,1,15.5,29.9
1.23333333333333,11.8013259163579,17.4411126823779,6.85134657423365,-0.00397610989343278,1,15.5,29.9
1.26666666666667,11.8014579617209,17.6694246066347,6.84737131683901,-0.00397525739463145,1,15.5,29.9
1.3,11.8015953947002,17.8976040333106,6.84339691131509,-0.00397440552392236,1,15.5,29.9
1.33333333333333,11.801738331442,18.1256509905903,6.83942335704688,-0.00397355426820933,1,15.5,29.9
1.36666666666667,11.8018868659883,18.353565506642,6.83545065341695,-0.00397270362993396,1,15.5,29.9
1.4,11.8020410597296,18.5813476096267,6.83147879980547,-0.00397185361147567,1,15.5,29.9
1.43333333333333,11.8022009388743,18.8089973277035,6.82750779560107,-0.00397100420440122,1,15.5,29.9
1.46666666666667,11.8023664986702,19.0365146890308,6.82353764021651,-0.00397015538456547,1,15.5,29.9
1.5,11.80253771206,19.2638997217651,6.81956833310317,-0.00396930711333798,1,15.5,29.9
1.53333333333333,11.8027145400806,19.4911524540565,6.81559987375955,-0.00396845934361689,1,15.5,29.9
1.56666666666667,11.8028969415749,19.7182729140441,6.81163226173135,-0.00396761202819906,1,15.5,29.9
1.6,11.8030848804883,19.945261129852,6.80766549660377,-0.00396676512758631,1,15.5,29.9
1.63333333333333,11.8032783299328,20.172117129586,6.80369957798873,-0.00396591861503737,1,15.5,29.9
1.66666666666667,11.8034772730672,20.3988409413329,6.79973450551071,-0.00396507247801559,1,15.5,29.9
1.7,11.8036817014988,20.6254325931603,6.79577027879431,-0.00396422671639751,1,15.5,29.9
1.73333333333333,11.8038916122555,20.851892113119,6.79180689745567,-0.00396338133864482,1,15.5,29.9
1.76666666666667,11.8041070044096,21.0782195292443,6.78784436109839,-0.00396253635727728,1,15.5,29.9
1.8,11.8043278762266,21.3044148695588,6.78388266931359,-0.0039616917848031,1,15.5,29.9
1.83333333333333,11.8045542233578,21.5304781620734,6.77992182168277,-0.00396084763081639,1,15.5,29.9
1.86666666666667,11.8047860382218,21.7564094347879,6.77596181778223,-0.00396000390054496,1,15.5,29.9
1.9,11.8050233104008,21.9822087156915,6.77200265718745,-0.00395916059478196,1,15.5,29.9
1.93333333333333,11.8052660276872,22.2078760327614,6.76804433947658,-0.00395831771087085,1,15.5,29.9
1.96666666666667,11.8055141773521,22.4334114139622,6.76408686423235,-0.00395747524422951,1,15.5,29.9
2,11.8057677472627,22.6588148872446,6.76013023104239,-0.00395663318995432,1,15.5,29.9
2.03333333333333,11.8060267266051,22.8840864805449,6.75617443949832,-0.003955791544068,1,15.5,29.9
2.06666666666667,11.8062911061224,23.1092262217849,6.75221948919411,-0.00395495030420889,1,15.5,29.9
2.1,11.8065608779179,23.3342341388716,6.74826537972436,-0.00395410946974994,1,15.5,29.9
2.13333333333333,11.8068360349684,23.5591102596977,6.74431211068292,-0.00395326904144611,1,15.5,29.9
2.16666666666667,11.8071165705262,23.7838546121425,6.74035968166209,-0.0039524290208286,1,15.5,29.9
2.2,11.8074024775786,24.0084672240722,6.73640809225255,-0.00395158940954321,1,15.5,29.9
2.23333333333333,11.8076937484807,24.2329481233405,6.73245734204371,-0.00395075020883429,1,15.5,29.9
2.26666666666667,11.8079903748097,24.4572973377886,6.72850743062446,-0.00394991141925249,1,15.5,29.9
2.3,11.8082923474285,24.6815148952453,6.72455835758387,-0.00394907304058645,1,15.5,29.9
2.33333333333333,11.8085996566984,24.9056008235269,6.72061012251185,-0.00394823507202258,1,15.5,29.9
2.36666666666667,11.8089122927593,25.1295551504367,6.71666272499944,-0.00394739751241602,1,15.5,29.9
2.4,11.8092302457993,25.3533779037651,6.71271616463886,-0.00394656036057217,1,15.5,29.9
2.43333333333333,11.8095535062538,25.5770691112886,6.70877044102336,-0.00394572361550605,1,15.5,29.9
2.46666666666667,11.8098820649056,25.8006288007705,6.70482555374679,-0.0039448872765675,1,15.5,29.9
2.5,11.8102159128845,26.0240569999604,6.70088150240331,-0.00394405134347675,1,15.5,29.9
2.53333333333333,11.8105550415903,26.2473537365942,6.69693828658706,-0.0039432158162569,1,15.5,29.9
2.56666666666667,11.8108994425735,26.4705190383948,6.69299590589195,-0.00394238069510422,1,15.5,29.9
2.6,11.8112491074117,26.6935529330717,6.6890543599117,-0.00394154598025409,1,15.5,29.9
2.63333333333333,11.8116040276095,26.9164554483213,6.68511364823984,-0.00394071167185572,1,15.5,29.9
2.66666666666667,11.8119641945406,27.1392266118272,6.68117377046994,-0.00393987776990556,1,15.5,29.9
2.7,11.8123295994352,27.36186645126,6.67723472619572,-0.00393904427421798,1,15.5,29.9
2.73333333333333,11.8127002334044,27.5843749942774,6.67329651501125,-0.00393821118446525,1,15.5,29.9
2.76666666666667,11.8130760874884,27.806752268524,6.66935913651104,-0.00393737850021658,1,15.5,29.9
2.8,11.8134571527107,28.0289983016317,6.66542259029001,-0.00393654622102257,1,15.5,29.9
2.83333333333333,11.8138434201255,28.2511131212188,6.66148687594356,-0.00393571434645779,1,15.5,29.9
2.86666666666667,11.8142348808471,28.4730967548907,6.65755199306739,-0.0039348828761705,1,15.5,29.9
2.9,11.8146315260608,28.6949492302395,6.65361794125749,-0.00393405180989514,1,15.5,29.9
2.93333333333333,11.8150333470152,28.9166705748444,6.64968472011006,-0.00393322114743277,1,15.5,29.9
2.96666666666667,11.8154403350034,29.1382608162712,6.64575232922141,-0.00393239088864483,1,15.5,29.9
3,11.8158524813384,29.3597199820728,6.64182076818801,-0.00393156103340697,1,15.5,29.9
3.03333333333333,11.8162697773318,29.5810480997887,6.63789003660643,-0.00393073158158064,1,15.5,29.9
3.06666666666667,11.8166922142786,29.8022451969459,6.63396013407342,-0.00392990253300418,1,15.5,29.9
3.1,11.8171197834504,30.0233113010581,6.63003106018595,-0.00392907388747421,1,15.5,29.9
3.13333333333333,11.8175524760973,30.2442464396261,6.6261028145412,-0.00392824564475003,1,15.5,29.9
3.16666666666667,11.8179902834556,30.4650506401377,6.62217539673663,-0.00392741780456785,1,15.5,29.9
3.2,11.8184331967585,30.6857239300677,6.61824880636998,-0.00392659036664522,1,15.5,29.9
3.23333333333333,11.818881207255,30.9062663418569,6.61432359358761,-0.00392521278237101,1,15.5,29.9
3.26666666666667,11.8193343063045,31.1266779584894,6.61040229706504,-0.00392129652257101,1,15.5,29.9
3.3,11.8197924854966,31.3469589721843,6.60648876032567,-0.00391353673936745,1,15.5,29.9
3.33333333333333,11.8202557367132,31.5671097114311,6.60258717538217,-0.00390158494350068,1,15.5,29.9
3.36666666666667,11.8207240521437,31.787130642702,6.59870160313577,-0.00388557224639907,1,15.5,29.9
3.4,11.821197424283,32.0070223641753,6.59483585624136,-0.00386574689441765,1,15.5,29.9
3.43333333333333,11.8216750465215,32.2267855944668,6.59099317220697,-0.0038426840343897,1,15.5,29.9
3.46666666666667,11.8221534839327,32.4464211519649,6.58717593960617,-0.00381723260079614,1,15.5,29.9
3.5,11.8226299170514,32.6659299194285,6.58338572346466,-0.0037902161415122,1,15.5,29.9
3.53333333333333,11.8231026995202,32.8853128165034,6.57962333789337,-0.00376238557128961,1,15.5,29.9
3.56666666666667,11.8235703656144,33.1045707784095,6.57588895296497,-0.0037343849284035,1,15.5,29.9
3.6,11.8240294988281,33.3237047404219,6.57218216365907,-0.00370678930589108,1,15.5,29.9
3.63333333333333,11.8244777200367,33.5427156123619,6.568502005797,-0.00368015786207287,1,15.5,29.9
3.66666666666667,11.8249141339804,33.7616051150373,6.56498288758738,-0.00351911820961703,1,15.5,29.9
3.7,11.8253388909273,33.9803975623943,6.56305263518044,-0.00193025240694844,1,15.5,29.9
3.73333333333333,11.8257528664288,34.1991812214972,6.56465204455308,0.00159940937264125,1,15.5,29.9
3.76666666666667,11.8261573099107,34.4180854001081,6.57029841557089,0.00564637101781074,1,15.5,29.9
3.8,11.8265535668496,34.6372447257099,6.57992316805482,0.00962475248393346,1,15.5,29.9
3.83333333333333,11.8269429285833,34.8567865459408,6.59317097720503,0.0132478091502106,1,15.5,29.9
3.86666666666667,11.8273265481235,35.0768235886318,6.60955019222985,0.0163792150248216,1,15.5,29.9
3.9,11.8277053994856,35.2974516863482,6.62855305770033,0.0190028654704797,4,15.5,29.9
3.93333333333333,11.8280802616022,35.5187507585907,6.64974402408241,0.0211909663820782,4,15.5,29.9
3.96666666666667,11.8284517161671,35.7407876701313,6.67276770070464,0.0230236766222296,4,15.5,29.9
4,11.8288201518989,35.9636181857341,6.6973110713823,0.0245433706776579,4,15.5,29.9
4.03333333333333,11.8291857764693,36.1872882763752,6.72309934090125,0.0257882695189533,4,15.5,29.9
4.06666666666667,11.8295486381992,36.4118353755257,6.74989477762043,0.0267954367191727,4,15.5,29.9
4.1,11.82990865701,36.6372895856701,6.77749483692494,0.0276000593045138,4,15.5,29.9
4.13333333333333,11.8302656619856,36.8636748085906,6.80572948711255,0.028234650187609,4,15.5,29.9
4.16666666666667,11.8306194312393,37.0910097905599,6.83446022566257,0.0287307385500242,4,15.5,29.9
4.2,11.8309697296407,37.3193093915899,6.86359529384824,0.0291350681856724,4,15.5,29.9
4.23333333333333,11.8313163401198,37.5485861901132,6.89308544167219,0.0294901478239504,4,15.5,29.9
4.26666666666667,11.8316590840054,37.7788514783712,6.92289958531836,0.0298141436461625,4,15.5,29.9
4.3,11.8319978294848,38.0101156149069,6.95301137575536,0.0301117904370063,4,15.5,29.9
4.33333333333333,11.8323324898388,38.2423880591257,6.98339132872888,0.0303799529735125,4,15.5,29.9
4.36666666666667,11.8326630138302,38.475676953864,7.01398637469504,0.0305950459661686,4,15.5,29.9
4.4,11.8329893715675,38.7099882392503,7.04472123297938,0.0307348582843341,4,15.5,29.9
4.43333333333333,11.8333115407067,38.9453253035239,7.07552095776749,0.0307997247881122,4,15.5,29.9
4.46666666666667,11.8336294956,39.1816892178794,7.10632294752313,0.0308019897556342,4,15.5,29.9
4.5,11.8339432005493,39.4190793344225,7.13708859971302,0.0307656521898911,4,15.5,29.9
