Time,x_ego,y_ego,velocity,acceleration,action,x_ped,y_ped
0,11.8,15.9,7,0,1,15.5,29.9
0.0333333333333333,11.8000108077957,16.1332703793511,6.99615583724665,-0.00384416275335475,1,15.5,29.9
0.0666666666666667,11.8000784322399,16.3664065971183,6.99197010845094,-0.00418572879570434,1,15.5,29.9
0.1,11.8002386306874,16.5994007401521,6.9876971088276,-0.00427299962334082,1,15.5,29.9
0.133333333333333,11.8005067917866,16.8322537192183,6.98350195366364,-0.00419515516396274,1,15.5,29.9
0.166666666666667,11.8008866769555,17.0649676851895,6.97936254969885,-0.00413940396478463,1,15.5,29.9
0.2,11.8013757759877,17.2975441678122,6.97526296758123,-0.00409958211762707,1,15.5,29.9
0.233333333333333,11.8019685081848,17.5299842572994,6.97119186025521,-0.00407110732601446,1,15.5,29.9
0.266666666666667,11.8026566035279,17.7622887369357,6.96714096896789,-0.00405089128732072,1,15.5,29.9
0.3,11.8034256138691,17.9944581850384,6.96310443245319,-0.00403653651470126,1,15.5,29.9
0.333333333333333,11.8042601982651,18.226493039251,6.95907845992295,-0.00402597253024162,1,15.5,29.9
0.366666666666667,11.8051489364922,18.4583936320398,6.95506050233616,-0.00401795758678869,1,15.5,29.9
0.4,11.8060841814362,18.6901602159863,6.95104869351623,-0.00401180881993213,1,15.5,29.9
0.433333333333333,11.8070609843291,18.9217929830482,6.94704163824845,-0.00400705526777312,1,15.5,29.9
0.466666666666667,11.8080763000544,19.153292079114,6.94303829083468,-0.00400334741377772,1,15.5,29.9
0.5,11.8091285000194,19.3846576149794,6.93903787496783,-0.00400041586684097,1,15.5,29.9
0.533333333333333,11.8102171126439,19.615889674515,6.93503982296732,-0.00399805200051873,1,15.5,29.9
0.566666666666667,11.8113426719476,19.8469883207537,6.9310437260949,-0.00399609687241664,1,15.5,29.9
0.6,11.8125065681178,20.0779536005795,6.92704929323865,-0.00399443285625001,1,15.5,29.9
0.633333333333333,11.8137108378133,20.3087855485715,6.92305631722567,-0.00399297601297643,1,15.5,29.9
0.666666666666667,11.8149578835895,20.5394841903608,6.91906464849821,-0.00399166872746282,1,15.5,29.9
0.7,11.8162501535834,20.7700495456632,6.91507417568199,-0.00399047281621634,1,15.5,29.9
0.733333333333333,11.8175898347233,21.0004816309815,6.91108481220123,-0.00398936348075996,1,15.5,29.9
0.766666666666667,11.8189786134385,21.2307804618682,6.90709648787799,-0.00398832432324792,1,15.5,29.9
0.8,11.820417541624,21.4609460546042,6.90310914442435,-0.00398734345363216,1,15.5,29.9
0.833333333333333,11.8219070203964,21.6909784271974,6.89912273373666,-0.00398641068769479,1,15.5,29.9
0.866666666666667,11.8234468884815,21.9208775996938,6.89513721784426,-0.00398551589239915,1,15.5,29.9
0.9,11.8250357915931,22.1506435983806,6.89115247961149,-0.00398473823276735,1,15.5,29.9
0.933333333333333,11.8266687489821,22.3802764712877,6.88716838110908,-0.003984098502408,1,15.5,29.9
0.966666666666667,11.8283387097892,22.6097762824031,6.8831849697316,-0.00398341137748215,1,15.5,29.9
1,11.8300399454179,22.8391430923467,6.87920230086479,-0.00398266886680965,1,15.5,29.9
1.03333333333333,11.8317657773763,23.0683769714181,6.87522036529694,-0.00398193556785387,1,15.5,29.9
1.06666666666667,11.8335092335328,23.2974779956213,6.87123926702168,-0.00398109827526305,1,15.5,29.9
1.1,11.8352664344283,23.5264462234019,6.86725912657694,-0.0039801404447326,1,15.5,29.9
1.13333333333333,11.8370363488851,23.7552816945341,6.86327998371583,-0.00397914286111778,1,15.5,29.9
1.16666666666667,11.8388197018966,23.9839844357683,6.85930183232094,-0.00397815139488955,1,15.5,29.9
1.2,11.8406181356819,24.2125544659295,6.85532464742194,-0.00397718489899201,1,15.5,29.9
1.23333333333333,11.8424344717065,24.440991793794,6.8513484525869,-0.00397619483504208,1,15.5,29.9
1.26666666666667,11.8442742564391,24.6692964063855,6.84737323935256,-0.00397521323434002,1,15.5,29.9
1.3,11.8461429680725,24.8974682885442,6.84339900140473,-0.00397423794783336,1,15.5,29.9
1.33333333333333,11.8480454747353,25.1255074271176,6.83942561113057,-0.00397339027416077,1,15.5,29.9
1.36666666666667,11.849977893682,25.3534138739909,6.8354528426765,-0.00397276845406758,1,15.5,29.9
1.4,11.8519287000178,25.5811877428143,6.83148061129411,-0.00397223138238623,1,15.5,29.9
1.43333333333333,11.853882738912,25.8088291816058,6.82750902746798,-0.00397158382612961,1,15.5,29.9
1.46666666666667,11.855826080042,26.0363383345008,6.82353828401637,-0.00397074345161297,1,15.5,29.9
1.5,11.857747887584,26.2637153237547,6.81956854259789,-0.00396974141847917,1,15.5,29.9
1.53333333333333,11.8596435707421,26.4909602207435,6.81559986508642,-0.00396867751146868,1,15.4916666666667,29.9
1.56666666666667,11.8615154514267,26.7180730381862,6.81163218104525,-0.00396768404116976,1,15.4666666666667,29.9
1.6,11.863367602705,26.9450537722009,6.80766540600253,-0.00396677504272436,1,15.425,29.9
1.63333333333333,11.8652039742966,27.1719024187621,6.80369949497505,-0.00396591102748367,1,15.3752276867031,29.9
1.66666666666667,11.8670280446523,27.398618977402,6.79973443025589,-0.00396506471915448,1,15.3259107468124,29.9
1.7,11.8688419811514,27.625203458388,6.79577021287936,-0.00396421737653085,1,15.2770491803279,29.9
1.73333333333333,11.8706448870987,27.8516558968469,6.79180684751568,-0.00396336536368125,1,15.2286429872495,29.9
1.76666666666667,11.8724362953438,28.0779763244075,6.78784433154042,-0.00396251597525765,1,15.1806921675774,29.9
1.8,11.8742168455689,28.3041647637927,6.78388266007629,-0.00396167146413084,1,15.1331967213115,29.9
1.83333333333333,11.8759878472965,28.5302212323849,6.77992182800121,-0.00396083207508102,1,15.0861566484517,29.9
1.86666666666667,11.8777508257962,28.7561457458852,6.77596183212296,-0.00395999587825457,1,15.0395719489982,29.9
1.9,11.8795071468334,28.981938321316,6.77200267203489,-0.00395916008806285,1,14.9934426229508,29.9
1.93333333333333,11.8812577777067,29.2075989789184,6.76804434947462,-0.00395832256027706,1,14.9477686703097,29.9
1.96666666666667,11.883003199701,29.4331277428308,6.76408686696687,-0.00395748250774464,1,14.9025500910747,29.9
2,11.8847434511411,29.6585246407189,6.76013022664891,-0.00395664031795651,1,14.8577868852459,29.9
2.03333333333333,11.8864782571791,29.883789702719,6.75617442971227,-0.00395579693664061,1,14.8134790528233,29.9
2.06666666666667,11.8882071944676,30.1089229601152,6.7522194763878,-0.0039549533244756,1,14.7696265938069,29.9
2.1,11.8899298442393,30.3339244441239,6.74826536618459,-0.00395411020320946,1,14.7262295081967,29.9
2.13333333333333,11.8916443096405,30.5587941974106,6.74431211967019,-0.00395324651440099,1,14.6832877959927,29.9
2.16666666666667,11.8933420521919,30.783532313883,6.74035978459801,-0.00395233507217263,1,14.6408014571949,29.9
2.2,11.8950108181342,31.0081389149701,6.73640840110869,-0.00395138348932456,1,14.5987704918033,29.9
2.23333333333333,11.8966416304619,31.2326140945617,6.73245798809555,-0.00395041301313537,1,14.5571948998179,29.9
2.26666666666667,11.8982274866496,31.4569579285589,6.72850853152058,-0.00394945657497381,1,14.5160746812386,29.9
2.3,11.8997658388162,31.6811704561188,6.72455991216737,-0.00394861935321433,1,14.4754098360656,29.9
2.33333333333333,11.9012621083376,31.9052516555718,6.7206118700557,-0.00394804211166733,1,14.4352003642987,29.9
2.36666666666667,11.9027322762505,32.1292014305986,6.71666424034712,-0.00394762970858231,1,14.3954462659381,29.9
2.4,11.904195094664,32.3530196723534,6.71271720451651,-0.00394703583060618,1,14.3561475409836,29.9
2.43333333333333,11.9056610511784,32.5767063376728,6.70877111064855,-0.00394609386796585,1,14.3173041894353,29.9
2.46666666666667,11.9071244306154,32.8002614989325,6.70482612684757,-0.00394498380097641,1,14.2789162112933,29.9
2.5,11.9085688794614,33.0236852994116,6.70088224112284,-0.00394388572473314,1,14.2409836065574,29.9
2.53333333333333,11.90997717722,33.2469778835791,6.69693948895109,-0.00394275217174567,1,14.2035063752277,29.9
2.56666666666667,11.9113328949932,33.4701393848913,6.69299789221263,-0.00394159673845529,1,14.1664845173042,29.9
2.6,11.912626137955,33.6931698858093,6.68905733346457,-0.0039405587480692,1,14.1299180327869,29.9
2.63333333333333,11.9138529638276,33.9160694229653,6.68511764666665,-0.00393968679791623,1,14.0938069216758,29.9
2.66666666666667,11.9150130960806,34.1388380050128,6.68117868715002,-0.00393895951662859,1,14.0581511839709,29.9
2.7,11.916108162886,34.3614756271376,6.67724037559132,-0.00393831155869773,1,14.0229508196721,29.9
2.73333333333333,11.9171405655905,34.5839822807957,6.67330269836793,-0.003937677223397,1,13.9882058287796,29.9
2.76666666666667,11.918112900638,34.806357958866,6.66936568256825,-0.00393701579967853,1,13.9539162112933,29.9
2.8,11.9190277628344,35.0286026574713,6.66542936812213,-0.00393631444611309,1,13.9200819672131,29.9
2.83333333333333,11.9198877383683,35.2507163760097,6.66149378950554,-0.00393557861659399,1,13.9200819672131,29.9
2.86666666666667,11.9206954317435,35.4726991166403,6.65755896916612,-0.00393482033941606,1,13.9200819672131,29.9
2.9,11.9214534346583,35.6945508839309,6.65362491932277,-0.00393404984335533,1,13.9200819672131,29.9
2.93333333333333,11.9221642116071,35.9162716848719,6.649691647483,-0.00393327183977021,1,13.9200819672131,29.9
2.96666666666667,11.9228307337077,36.1378615256324,6.64575906513972,-0.00393258234328009,1,13.9200819672131,29.9
3,11.9234581421465,36.3593204049708,6.64182715614312,-0.00393190899659679,1,13.9200819672131,29.9
3.03333333333333,11.924050310602,36.5806483299296,6.63789602078219,-0.00393113536093193,1,13.9200819672131,29.9
3.06666666666667,11.9246091573592,36.8018453172184,6.63396573102613,-0.00393028975605603,1,13.9200819672131,29.9
3.1,11.9251350694769,37.0229113899565,6.63003632971124,-0.00392940131489361,1,13.9200819672131,29.9
3.13333333333333,11.9256273859129,37.2438465747786,6.62610783559379,-0.00392849411744667,1,13.9200819672131,29.9
3.16666666666667,11.9260848597869,37.4646508995501,6.62218025024477,-0.00392758534902704,1,13.9200819672131,29.9
3.2,11.9265060442394,37.685324391784,6.61825356444711,-0.00392668579765942,1,13.9200819672131,29.9
3.23333333333333,11.9268895723576,37.9058670777237,6.61432776325004,-0.00392580119706842,1,13.9200819672131,29.9
3.26666666666667,11.927234325389,38.126278981979,6.61040282969454,-0.00392493355549828,1,13.9200819672131,29.9
3.3,11.9275395018814,38.3465601275616,6.60647874747849,-0.00392408221604867,1,13.9200819672131,29.9
3.33333333333333,11.9278046118284,38.5667105361594,6.60255550275458,-0.00392324472391081,1,13.9200819672131,29.9
3.36666666666667,11.9280309846731,38.7867302251413,6.59863292721302,-0.00392257554156483,1,13.9200819672131,29.9
3.4,11.9282268262694,39.0066191990363,6.5947108168053,-0.00392211040771429,1,13.9200819672131,29.9
3.43333333333333,11.9284058635304,39.2263774575533,6.5907891536244,-0.00392166318089782,1,13.9200819672131,29.9
3.46666666666667,11.9285839398651,39.4460050046374,6.58686813448596,-0.00392101913844112,1,13.9200819672131,29.9
