Time,x_ego,y_ego,velocity,acceleration,action,x_ped,y_ped
0,11.8,15.9,7,0,1,15.5,29.9
0.0333333333333333,11.8,16.1332703793943,6.99615577953002,-0.00384422046998356,1,15.3694444444444,29.9
0.0666666666666667,11.8,16.3664065988113,6.99196947109348,-0.00418630843653833,1,15.2444444444444,29.9
0.1,11.8,16.5994007552791,6.98769498718995,-0.00427448390352669,1,15.125,29.9
0.133333333333333,11.8,16.8322537852842,6.9834976545359,-0.00419733265404787,1,15.0111111111111,29.9
0.166666666666667,11.8,17.0649678802301,6.97935585456763,-0.00414179996826913,1,14.9027777777778,29.9
0.2,11.8,17.2975446186632,6.97525409491249,-0.00410175965514537,1,14.8,29.9
0.233333333333333,11.8,17.5299851399444,6.97118127319767,-0.00407282171482137,1,14.7027777777778,29.9
0.266666666666667,11.8,17.7622902687052,6.96712943294736,-0.00405184025031069,1,14.6111111111111,29.9
0.3,11.8,17.9944606040335,6.96309287213007,-0.00403656081728965,1,14.525,29.9
0.333333333333333,11.8000033191076,18.2264962200624,6.95904571112514,-0.00404716100493108,1,14.4444444444444,29.9
0.366666666666667,11.8000240955277,18.4583393071596,6.95154086577839,-0.00750484534674278,1,14.3694444444444,29.9
0.4,11.8000735847515,18.6897307024824,6.93194443804381,-0.0195964277345873,3,14.3,29.9
0.433333333333333,11.8001575944588,18.9202095807026,6.89679060838229,-0.0351538296615201,3,14.2361111111111,29.9
0.466666666666667,11.8002780508535,19.1492860770161,6.84780275993393,-0.048987848448359,3,14.1777777777778,29.9
0.5,11.8004344177625,19.3765855466717,6.79017060223559,-0.0576321576983352,3,14.125,29.9
0.533333333333333,11.8006247972763,19.6018776288311,6.72736142883816,-0.0628091733974303,3,14.0777777777778,29.9
0.566666666666667,11.8008466594746,19.8250184691164,6.66109832644729,-0.0662631023908729,3,14.0361111111111,29.9
0.6,11.8010972755416,20.0459507119933,6.59484807406827,-0.0662502523790227,3,14,29.9
0.633333333333333,11.8013738897017,20.2646170181852,6.5251449342502,-0.0697031398180696,3,13.9694444444444,29.9
0.666666666666667,11.8016737696171,20.4809026616193,6.45201129257815,-0.0731336416720456,3,13.9444444444444,29.9
0.7,11.8019942462484,20.6946642353107,6.37370380262407,-0.0783074899540788,3,13.925,29.9
0.733333333333333,11.8023328015793,20.9057866969364,6.2936674384788,-0.0800363641452737,3,13.9111111111111,29.9
0.766666666666667,11.8026871094629,21.1141550236498,6.20845834588106,-0.0852090925977365,3,13.9027777777778,29.9
0.8,11.8030550574884,21.3195968102607,6.11807728025098,-0.0903810656300799,3,13.9,29.9
0.833333333333333,11.8034349221678,21.521997446491,6.0259910700029,-0.0920862102480813,3,13.9,29.9
0.866666666666667,11.8038253777025,21.7212710430418,5.93045623929064,-0.0955348307122605,3,13.9,29.9
0.9,11.8042254976771,21.9173604298664,5.83493941638647,-0.095516822904167,3,13.9,29.9
0.933333333333333,11.8046347422752,22.1102662146498,5.73944080207291,-0.0954986143135645,3,13.9,29.9
0.966666666666667,11.8050527991754,22.2999890081982,5.64396052800318,-0.0954802740697325,3,13.9,29.9
1,11.8054794271269,22.4865007198639,5.54677655223545,-0.0971839757677264,3,13.9,29.9
1.03333333333333,11.805914289392,22.6697154943581,5.44614517251065,-0.1006313797248,3,13.9,29.9
1.06666666666667,11.8063568427891,22.8494897176937,5.34034465338429,-0.105800519126362,3,13.9,29.9
1.1,11.8068064152215,23.0257088582057,5.23284160743722,-0.107503045947071,3,13.9,29.9
1.13333333333333,11.8072621261224,23.1982580334389,5.12014840889755,-0.112693198539668,3,13.9,29.9
1.16666666666667,11.8077229036854,23.3670223768154,5.00575343666978,-0.114394972227771,3,13.9,29.9
1.2,11.8081876364205,23.5319451662254,4.88965689485842,-0.116096541811362,3,13.9,29.9
1.23333333333333,11.8086549985741,23.6929119193221,4.76839289589199,-0.121263998966429,3,13.9,29.9
1.26666666666667,11.8091236205281,23.8498078043324,4.64540619387546,-0.122986702016526,3,13.9,29.9
1.3,11.8095921923932,24.0025460401975,4.51890706244686,-0.126499131428606,3,13.9,29.9
1.33333333333333,11.8100594310885,24.1510364402258,4.39054602349078,-0.128361038956076,3,13.9,29.9
1.36666666666667,11.8105241684368,24.295218127333,4.26039152659043,-0.130154496900354,3,13.9,29.9
1.4,11.8109852883382,24.4350319110748,4.12847711295624,-0.131914413634186,3,13.9,29.9
1.43333333333333,11.8114417118567,24.5704191892855,3.99480511680318,-0.133671996153057,3,13.9,29.9
1.46666666666667,11.8118924555447,24.7013507474216,3.86113684036492,-0.13366827643826,3,13.9,29.9
1.5,11.8123365454757,24.8277982237113,3.72576244733515,-0.135374393029775,3,13.9,29.9
1.53333333333333,11.812772851476,24.9496758400285,3.58694695677963,-0.138815490555521,3,13.9,29.9
1.56666666666667,11.8132003131551,25.0669267811097,3.44816313444675,-0.138783822332873,3,13.9,29.9
1.6,11.813617946847,25.1795234842266,3.30769343507536,-0.140469699371392,3,13.9,29.9
1.63333333333333,11.8140247811299,25.2874385204821,3.16726340876602,-0.140430026309345,3,13.9,29.9
1.66666666666667,11.8144199537497,25.3906732583553,3.02687536076957,-0.140388047996449,3,13.9,29.9
1.7,11.8148027318131,25.4892578332452,2.88825299767252,-0.138622363097052,3,13.9,29.9
1.73333333333333,11.8151723516571,25.5831937170736,2.74795289055273,-0.140300107119784,3,13.9,29.9
1.76666666666667,11.8155280208803,25.6724537064069,2.60769797749481,-0.140254913057923,3,13.9,29.9
1.8,11.8158690873881,25.757039319507,2.46748871167738,-0.140209265817434,3,13.9,29.9
1.83333333333333,11.8161949468979,25.836952084861,2.32732534332019,-0.140163368357188,3,13.8991319444444,29.9
1.86666666666667,11.8165050471627,25.9121936717684,2.18723859611671,-0.140086747203476,3,13.8965277777778,29.9
1.9,11.8167989171572,25.9827756333964,2.04799172366861,-0.139246872448107,3,13.8921875,29.9
1.93333333333333,11.8170761637696,26.0487207191672,1.90916562920977,-0.138826094458831,3,13.8861111111111,29.9
1.96666666666667,11.8173364339509,26.1100526460815,1.77123372960192,-0.137931899607856,3,13.8782986111111,29.9
2,11.8175794354821,26.1668032162111,1.63427921791108,-0.136954511690835,3,13.86875,29.9
2.03333333333333,11.8178050086721,26.2190334525739,1.5000136207299,-0.134265597181188,3,13.8574652777778,29.9
2.06666666666667,11.8180130273433,26.2668037513491,1.36667559033368,-0.133338030396212,3,13.8444444444444,29.9
2.1,11.8182033011284,26.3101450498752,1.23426834239918,-0.132407247934505,3,13.8296875,29.9
2.13333333333333,11.8183757711158,26.34911645817,1.10447316728874,-0.129795175110441,3,13.8131944444444,29.9
2.16666666666667,11.8185305096201,26.3838050516179,0.977317685134436,-0.127155482154302,3,13.7949652777778,29.9
2.2,11.8186676349533,26.4143011824177,0.852943946981605,-0.124373738152831,3,13.775,29.9
2.23333333333333,11.8187873093943,26.4406983193094,0.731356897006227,-0.121587049975378,3,13.7532986111111,29.9
2.26666666666667,11.8188897163747,26.4630871567947,0.612427805925902,-0.118929091080325,3,13.7298611111111,29.9
2.3,11.8189751594486,26.4815843258311,0.497863844770447,-0.114563961155455,3,13.7046875,29.9
2.33333333333333,11.8190439715138,26.4963073636413,0.385980442918025,-0.111883401852422,3,13.6777777777778,29.9
2.36666666666667,11.8190965102849,26.5073741372049,0.278471126512476,-0.107509316405549,3,13.6491319444444,29.9
2.4,11.8191331430965,26.5148996090151,0.173494121990885,-0.104977004521591,3,13.61875,29.9
2.43333333333333,11.819154146091,26.5189685883371,0.07112883045193,-0.102365291538956,3,13.5866319444444,29.9
2.46666666666667,11.8191609365456,26.5199819175687,0.0170046183120923,-0.0541242121398377,3,13.5527777777778,29.9
2.5,11.8191581034916,26.5192259143257,0.0358753276816178,0.0188707093695255,4,13.5171875,29.9
2.53333333333333,11.8191505791042,26.5180322734246,0.00276774833122514,-0.0331075793503927,3,13.4798611111111,29.9
2.56666666666667,11.8191505791042,26.5180322734246,0.0037057689622482,0.00093802063102306,5,13.4407986111111,29.9
2.6,11.8191505791042,26.5180322734246,0.00490245397070499,0.00119668500845679,5,13.4,29.9
2.63333333333333,11.8191505791042,26.5180322734246,0.00623762177095236,0.00133516780024737,5,13.3574652777778,29.9
2.66666666666667,11.8191505791042,26.5180322734246,0.00756953630582333,0.00133191453487097,5,13.3131944444444,29.9
2.7,11.8191505791042,26.5180322734246,0.00875407501395355,0.00118453870813023,5,13.2671875,29.9
2.73333333333333,11.8191505791042,26.5180322734246,0.00966120763979283,0.000907132625839276,5,13.2194444444444,29.9
2.76666666666667,11.8191505791042,26.5180322734246,0.010187783212557,0.000526575572764211,5,13.1699652777778,29.9
2.8,11.8191505791042,26.5180322734246,0.0102660871299668,7.83039174097108e-05,5,13.11875,29.9
2.83333333333333,11.8191505791042,26.5180322734246,0.00986805947801617,-0.000398027651950577,5,13.0657986111111,29.9
2.86666666666667,11.8191505791042,26.5180322734246,0.00900543336355464,-0.000862626114461536,5,13.0111111111111,29.9
2.9,11.8191505791042,26.5180322734246,0.00772634083069122,-0.00127909253286342,5,12.9546875,29.9
2.93333333333333,11.8191505791042,26.5180322734246,0.00610913516088685,-0.00161720566980437,5,12.8965277777778,29.9
2.96666666666667,11.8191505791042,26.5180322734246,0.00425429108757964,-0.00185484407330721,5,12.8366319444444,29.9
3,11.8191505791042,26.5180322734246,0.0022752743227156,-0.00197901676486404,5,12.775,29.9
3.03333333333333,11.8191505791042,26.5180322734246,0.000289229520579405,-0.0019860448021362,5,12.7116319444444,29.9
3.06666666666667,11.8191505791042,26.5180322734246,0.00159176437449624,0.00130253485391684,5,12.6465277777778,29.9
3.1,11.8191505791042,26.5180322734246,0.00326826437045993,0.00167649999596369,5,12.5796875,29.9
3.13333333333333,11.8191505791042,26.5180322734246,0.00465941924912114,0.0013911548786612,5,12.5111111111111,29.9
3.16666666666667,11.8191505791042,26.5180322734246,0.00570704718881013,0.00104762793968899,5,12.4407986111111,29.9
3.2,11.8191505791042,26.5180322734246,0.00637774274893198,0.000670695560121851,5,12.36875,29.9
3.23333333333333,11.8191505791042,26.5180322734246,0.00666307559383999,0.00028533284490801,5,12.2949652777778,29.9
3.26666666666667,11.8191505791042,26.5180322734246,0.00657807291168296,-8.50026821570329e-05,5,12.2194444444444,29.9
3.3,11.8191505791042,26.5180322734246,0.00615827618190583,-0.000419796729777129,5,12.1421875,29.9
3.33333333333333,11.8191505791042,26.5180322734246,0.00545572811949337,-0.000702548062412457,5,12.0631944444444,29.9
3.36666666666667,11.8191505791042,26.5180322734246,0.00453427735955934,-0.00092145075993403,5,11.9824652777778,29.9
3.4,11.8191505791042,26.5180322734246,0.00346458913962005,-0.00106968821993929,5,11.9,29.9
3.43333333333333,11.8191505791042,26.5180322734246,0.00231922408825576,-0.0011453650513643,5,11.8157986111111,29.9
3.46666666666667,11.8191505791042,26.5180322734246,0.00116809968434657,-0.00115112440390919,5,11.7298611111111,29.9
3.5,11.8191505791042,26.5180322734246,7.45861485242716e-05,-0.0010935135358223,5,11.6421875,29.9
3.53333333333333,11.8191505791042,26.5180322734246,0.0009075832215495,0.000832997073025228,5,11.5527777777778,29.9
3.56666666666667,11.8191505791042,26.5180322734246,0.00173648192716823,0.000828898705618732,5,11.4616319444444,29.9
3.6,11.8191505791042,26.5180322734246,0.00238320720914321,0.00064672528197498,5,11.36875,29.9
3.63333333333333,11.8191505791042,26.5180322734246,0.00283217616470803,0.000448968955564818,5,11.2741319444444,29.9
3.66666666666667,11.8191505791042,26.5180322734246,0.00308058808110441,0.000248411916396382,5,11.1777777777778,29.9
3.7,11.8191505791042,26.5180322734246,0.00313718238665202,5.65943055476077e-05,5,11.0796875,29.9
3.73333333333333,11.8191505791042,26.5180322734246,0.00302045030993621,-0.000116732076715812,5,10.9798611111111,29.9
3.76666666666667,11.8191505791042,26.5180322734246,0.00275647330130779,-0.000263977008628421,5,10.8782986111111,29.9
3.8,11.8191505791042,26.5180322734246,0.00237656335462848,-0.000379909946679308,5,10.775,29.9
3.83333333333333,11.8191505791042,26.5180322734246,0.00191487113678174,-0.000461692217846741,5,10.6699652777778,29.9
3.86666666666667,11.8191505791042,26.5180322734246,0.0014061093694736,-0.000508761767308139,5,10.5631944444444,29.9
3.9,11.8191505791042,26.5180322734246,0.00088351360231297,-0.000522595767160628,5,10.4546875,29.9
3.93333333333333,11.8191505791042,26.5180322734246,0.000377132869140422,-0.000506380733172548,5,10.3444444444444,29.9
3.96666666666667,11.8191505791042,26.5180322734246,8.74888329974613e-05,-0.000289644036142961,5,10.2324652777778,29.9
4,11.8191505791042,26.5180322734246,0.000490210536716396,0.000402721703718934,5,10.11875,29.9
4.03333333333333,11.8191505791042,26.5180322734246,0.000816771078064316,0.000326560541347921,5,10.0032986111111,29.9
4.06666666666667,11.8191505791042,26.5180322734246,0.00105886925365045,0.00024209817558613,5,9.88611111111111,29.9
4.1,11.8191505791042,26.5180322734246,0.00121389247171582,0.000155023218065374,5,9.7671875,29.9
4.13333333333333,11.8191505791042,26.5180322734246,0.00128435410985459,7.0461638138774e-05,5,9.64652777777778,29.9
4.16666666666667,11.8191505791042,26.5180322734246,0.00127710928766441,-7.24482219018703e-06,5,9.52413194444444,29.9
4.2,11.8191505791042,26.5180322734246,0.00120242282485598,-7.46864628084318e-05,5,9.4,29.9
4.23333333333333,11.8191505791042,26.5180322734246,0.00107296226813433,-0.000129460556721647,5,9.27413194444444,29.9
4.26666666666667,11.8191505791042,26.5180322734246,0.000902783754344149,-0.000170178513790179,5,9.14652777777778,29.9
4.3,11.8191505791042,26.5180322734246,0.000706370013002313,-0.000196413741341836,5,9.0171875,29.9
4.33333333333333,11.8191505791042,26.5180322734246,0.000497768961073984,-0.000208601051928329,5,8.88611111111111,29.9
4.36666666666667,11.8191505791042,26.5180322734246,0.000289869081202662,-0.000207899879871322,5,8.75329861111111,29.9
4.4,11.8191505791042,26.5180322734246,9.38350266361263e-05,-0.000196034054566535,5,8.61875,29.9
4.43333333333333,11.8191505791042,26.5180322734246,8.12855120877526e-05,-1.25495145483738e-05,5,8.48246527777778,29.9
4.46666666666667,11.8191505791042,26.5180322734246,0.000228784021150785,0.000147498509063032,5,8.34444444444444,29.9
4.5,11.8191505791042,26.5180322734246,0.000344352614651466,0.000115568593500681,5,8.2046875,29.9
4.53333333333333,11.8191505791042,26.5180322734246,0.000426002765116962,8.1650150465496e-05,5,8.06319444444444,29.9
4.56666666666667,11.8191505791042,26.5180322734246,0.000473865113896115,4.7862348779153e-05,5,7.91996527777778,29.9
4.6,11.8191505791042,26.5180322734246,0.000489897748934142,1.60326350380273e-05,5,7.775,29.9
4.63333333333333,11.8191505791042,26.5180322734246,0.000477531843729715,-1.23659052044274e-05,5,7.62829861111111,29.9
4.66666666666667,11.8191505791042,26.5180322734246,0.000441283178282125,-3.62486654475897e-05,5,7.47986111111111,29.9
4.7,11.8191505791042,26.5180322734246,0.000386356094568936,-5.49270837131893e-05,5,7.3296875,29.9
4.73333333333333,11.8191505791042,26.5180322734246,0.000318263213500633,-6.80928810683029e-05,5,7.17777777777778,29.9
4.76666666666667,11.8191505791042,26.5180322734246,0.000242480121436279,-7.57830920643543e-05,5,7.02413194444444,29.9
4.8,11.8191505791042,26.5180322734246,0.000164149587035513,-7.83305344007661e-05,5,6.86875,29.9
4.83333333333333,11.8191505791042,26.5180322734246,8.78450373474764e-05,-7.63045496880362e-05,5,6.71163194444444,29.9
4.86666666666667,11.8191505791042,26.5180322734246,1.73983112352499e-05,-7.04467261122264e-05,5,6.55277777777778,29.9
4.9,11.8191505791042,26.5180322734246,4.42076265977841e-05,2.68093153625341e-05,5,6.3921875,29.9
4.93333333333333,11.8191505791042,26.5180322734246,9.4884090082633e-05,5.0676463484849e-05,5,6.22986111111111,29.9
4.96666666666667,11.8191505791042,26.5180322734246,0.000133426328761269,3.85422386786359e-05,5,6.06579861111111,29.9
5,11.8191505791042,26.5180322734246,0.000159455844159625,2.60295153983559e-05,5,5.9,29.9
5.03333333333333,11.8191505791042,26.5180322734246,7.47128154562917e-05,-8.47430287033331e-05,5,5.9,29.9
5.06666666666667,11.8191519085849,26.5184046050198,0.0187157397414815,0.0186410269260252,4,5.9,29.9
5.1,11.8191564676161,26.5196813435514,0.0578376540817236,0.0391219143402421,4,5.9,29.9
5.13333333333333,11.8191663853814,26.5224572610644,0.108618236705725,0.0507805826240016,4,5.9,29.9
5.16666666666667,11.8191823334314,26.5269133539193,0.158609567616564,0.0499913309108386,4,5.9,29.9
5.2,11.8192042723541,26.5330192186306,0.207582443937378,0.048972876320814,4,5.9,29.9
5.23333333333333,11.819232212118,26.5407381494472,0.25538784578916,0.0478054018517818,4,5.9,29.9
5.26666666666667,11.8192662423105,26.5500306721719,0.302017612170318,0.0466297663811585,4,5.9,29.9
5.3,11.8193065492203,26.5608586208404,0.347529777156302,0.0455121649859838,4,5.9,29.9
5.33333333333333,11.8193534134846,26.5731856275817,0.391972054690629,0.0444422775343276,4,5.9,29.9
5.36666666666667,11.8194071758839,26.5869767703264,0.435383352911025,0.0434112982203955,4,5.9,29.9
5.4,11.8194682187704,26.6021983021741,0.477794728340042,0.0424113754290168,4,5.9,29.9
5.43333333333333,11.8195369680913,26.6188171168816,0.519211703405817,0.0414169750657752,4,5.9,29.9
5.46666666666667,11.8196138422002,26.636800008335,0.559630665793369,0.040418962387552,4,5.9,29.9
5.5,11.8196992685287,26.6561137521612,0.599055767044627,0.0394251012512579,4,5.9,29.9
5.53333333333333,11.8197936777863,26.6767253386385,0.637496891861855,0.0384411248172285,4,5.9,29.9
5.56666666666667,11.8198974839675,26.6986021399645,0.674967805802475,0.0374709139406193,4,5.9,29.9
5.6,11.8200110636305,26.7217120964226,0.711493326795038,0.0365255209925637,4,5.9,29.9
5.63333333333333,11.8201347380594,26.7460245920476,0.747134151276167,0.0356408244811288,4,5.9,29.9
5.66666666666667,11.8202687563866,26.7715111327135,0.781949969219923,0.0348158179437557,4,5.9,29.9
5.7,11.8204132779558,26.7981450260967,0.815988717634159,0.0340387484142359,4,5.9,29.9
5.73333333333333,11.8205683585137,26.8259010442562,0.849289683348491,0.0333009657143319,4,5.9,29.9
5.76666666666667,11.8207339414852,26.8547551721256,0.88188578056476,0.0325960972162694,4,5.9,29.9
5.8,11.820909855541,26.8846845826471,0.913827916360127,0.0319421357953666,4,5.9,29.9
5.83333333333333,11.8210958287393,26.9156704044061,0.945323899031303,0.0314959826711761,4,5.9,29.9
5.86666666666667,11.8212915224266,26.9477038954761,0.976770316535412,0.031446417504109,4,5.9,29.9
5.9,11.8214965723213,26.9807925341546,1.00874485792194,0.031974541386526,4,5.9,29.9
5.93333333333333,11.8217106387934,27.0149665222553,1.04204535667071,0.0333004987487715,4,5.9,29.9
5.96666666666667,11.8219334709482,27.0502868823338,1.07771685347504,0.0356714968043308,4,5.9,29.9
6,11.8221649745787,27.0868526630166,1.11698547971311,0.0392686262380668,4,5.9,29.9
6.03333333333333,11.8224052740081,27.1248049522575,1.16109480312458,0.0441093234114707,4,5.9,29.9
6.06666666666667,11.822654741908,27.1643217933717,1.21098952492391,0.0498947217993275,4,5.9,29.9
6.1,11.8229140086398,27.2056076474044,1.26732574201057,0.0563362170866637,4,5.9,29.9
6.13333333333333,11.8231839776976,27.2488846371968,1.33050575896153,0.0631800169509655,4,5.9,29.9
6.16666666666667,11.8234658368461,27.2943837828624,1.40065226025004,0.0701465012885014,4,5.9,29.9
6.2,11.8237610567889,27.3423352715295,1.47760929394615,0.0769570336961123,4,5.9,29.9
6.23333333333333,11.8240713869796,27.3929611391487,1.56105290101286,0.0834436070667095,4,5.9,29.9
6.26666666666667,11.8243988418221,27.4464698854107,1.65049292887256,0.0894400278596976,4,5.9,29.9
6.3,11.8247456649319,27.5030511858129,1.74529693768205,0.0948040088094972,4,5.9,29.9
6.33333333333333,11.8251142695927,27.5628710237163,1.84465758459792,0.0993606469158663,4,5.9,29.9
6.36666666666667,11.8255071467664,27.6260655514416,1.9476295468917,0.102971962293784,4,5.9,29.9
6.4,11.8259267714317,27.6927399299367,2.05331092002883,0.105681373137122,4,5.9,29.9
6.43333333333333,11.8263755072736,27.7629704550498,2.1608740042641,0.10756308423527,4,5.9,29.9
6.46666666666667,11.8268555086566,27.8368072293662,2.26957609837664,0.108702094112544,4,5.9,29.9
6.5,11.8273686321775,27.9142770940934,2.37876579333052,0.109189694953885,4,5.9,29.9
