Time,x_ego,y_ego,velocity,acceleration,action,x_ped,y_ped
0,11.8,8.9,5,0,1,15.5,29.9
0.0333333333333333,11.7999963849159,9.06660768883747,4.99642262383768,-0.00357737616232345,1,15.5,29.9
0.0666666666666667,11.7999731931147,9.23309265291487,4.99264768180993,-0.00377494202774908,1,15.5,29.9
0.1,11.799916633104,9.39944929503992,4.98873172454986,-0.00391595726007044,1,15.5,29.9
0.133333333333333,11.7998187588898,9.56567361580513,4.98471522676415,-0.00401649778570246,1,15.5,29.9
0.166666666666667,11.7996764593977,9.73176275995304,4.98062710743408,-0.00408811933007236,1,15.5,29.9
0.2,11.7994902181123,9.89771469230113,4.97648802629002,-0.00413908114406425,1,15.5,29.9
0.233333333333333,11.7992629022974,10.0635279664076,4.97231276513208,-0.00417526115793354,1,15.5,29.9
0.266666666666667,11.7989987367914,10.2292015592328,4.96811192693604,-0.00420083819604322,1,15.5,29.9
0.3,11.7987025219883,10.3947347526023,4.96389313678642,-0.00421879014962556,1,15.5,29.9
0.333333333333333,11.7983790857285,10.5601270478827,4.95966188828662,-0.00423124849979217,1,15.5,29.9
0.366666666666667,11.7980329207334,10.7253781043321,4.95542214251403,-0.00423974577259845,1,15.5,29.9
0.4,11.7976679501918,10.8904876944443,4.95117675526774,-0.00424538724628842,1,15.5,29.9
0.433333333333333,11.7972873754047,11.0554556715765,4.94692778420367,-0.00424897106407052,1,15.5,29.9
0.466666666666667,11.7968935799033,11.2202819465084,4.94267671060444,-0.00425107359923071,1,15.5,29.9
0.5,11.7964880840536,11.3849664705289,4.93842459960157,-0.00425211100286038,1,15.5,29.9
0.533333333333333,11.7960715560574,11.5495092233064,4.93417221574754,-0.00425238385403137,1,15.5,29.9
0.566666666666667,11.7956438869505,11.7139102042761,4.92992010628076,-0.00425210946678245,1,15.5,29.9
0.6,11.7952043300707,11.8781694266109,4.92566866116449,-0.00425144511626829,1,15.5,29.9
0.633333333333333,11.7947516935742,12.0422869130831,4.92141815648432,-0.00425050468017396,1,15.5,29.9
0.666666666666667,11.7942845628271,12.2062626932964,4.91716878589155,-0.00424937059277219,1,15.5,29.9
0.7,11.7938015221214,12.3700968018838,4.91292068343597,-0.00424810245557605,1,15.5,29.9
0.733333333333333,11.7933013445566,12.5337892773584,4.90867394024661,-0.00424674318935736,1,15.5,29.9
0.766666666666667,11.7927831252552,12.6973401613691,4.90442861691291,-0.00424532333370742,1,15.5,29.9
0.8,11.7922463445351,12.8607494981745,4.90018475290683,-0.00424386400607979,1,15.5,29.9
0.833333333333333,11.791690861231,13.0240173342074,4.89594237388592,-0.00424237902090141,1,15.5,29.9
0.866666666666667,11.7911168487361,13.1871437176559,4.89170149727516,-0.00424087661076822,1,15.5,29.9
0.9,11.7905246948757,13.3501286980372,4.88746213624767,-0.00423936102748446,1,15.5,29.9
0.933333333333333,11.7899148899635,13.5129723257751,4.88322430216891,-0.00423783407876144,1,15.5,29.9
0.966666666666667,11.7892879253029,13.6756746518121,4.87898800568719,-0.00423629648172064,1,15.5,29.9
1,11.7886442181711,13.8382357272905,4.87475325682377,-0.0042347488634169,1,15.5,29.9
1.03333333333333,11.7879840709317,14.0006556033264,4.87052006451449,-0.00423319230928421,1,15.5,29.9
1.06666666666667,11.7873076635284,14.1629343308858,4.86628843602957,-0.00423162848492087,1,15.5,29.9
1.1,11.7866150720211,14.3250719607526,4.86205837657205,-0.00423005945751509,1,15.5,29.9
1.13333333333333,11.7859063021609,14.4870685435627,4.85782988919295,-0.0042284873790992,1,15.5,29.9
1.16666666666667,11.7851813264906,14.6489241298739,4.85360297502268,-0.0042269141702711,1,15.5,29.9
1.2,11.7844401156063,14.8106387702381,4.84937763373087,-0.00422534129181251,1,15.5,29.9
1.23333333333333,11.7836826579907,14.9722125152531,4.84515386408999,-0.00422376964088489,1,15.5,29.9
1.26666666666667,11.7829089670161,15.1336454155819,4.84093166451897,-0.00422219957101522,1,15.5,29.9
1.3,11.7821190772638,15.2949375219386,4.83671103350891,-0.00422063101006476,1,15.5,29.9
1.33333333333333,11.7813130344883,15.4560888850537,4.83249196987411,-0.00421906363479874,1,15.5,29.9
1.36666666666667,11.7804908841499,15.6170995556312,4.82827447281981,-0.00421749705429608,1,15.5,29.9
1.4,11.779652662627,15.7779695843146,4.82405854186075,-0.00421593095906392,1,15.5,29.9
1.43333333333333,11.7787983935076,15.9386990216714,4.81984417665301,-0.00421436520774066,1,15.5,29.9
1.46666666666667,11.7779280893615,16.0992879181994,4.81563137680924,-0.00421279984376621,1,15.5,29.9
1.5,11.7770417576971,16.2597363243514,4.81142014175563,-0.00421123505360832,1,15.5,29.9
1.53333333333333,11.7761394087788,16.4200442905703,4.80721047066498,-0.00420967109064829,1,15.5,29.9
1.56666666666667,11.77522106278,16.5802118673234,4.80300236247267,-0.00420810819231132,1,15.5,29.9
1.6,11.7742867542713,16.7402391051263,4.79879581595852,-0.00420654651415209,1,15.5,29.9
1.63333333333333,11.773336533026,16.9001260545502,4.79459082986291,-0.00420498609560838,1,15.5,29.9
1.66666666666667,11.7723704612372,17.0598727662126,4.79038740300129,-0.00420342686162201,1,15.5,29.9
1.7,11.7713886081687,17.2194792907525,4.78618553434691,-0.00420186865437522,1,15.5,29.9
1.73333333333333,11.7703910437887,17.3789456787998,4.78198522306431,-0.00420031128260145,1,15.5,29.9
1.76666666666667,11.7693778329985,17.5382719809446,4.7777864684912,-0.00419875457311036,1,15.5,29.9
1.8,11.7683490317121,17.6974582477146,4.77358927008032,-0.00419719841088284,1,15.5,29.9
1.83333333333333,11.7673046854303,17.8565045295642,4.76939362732116,-0.00419564275915985,1,15.5,29.9
1.86666666666667,11.766244830266,18.0154108768773,4.76519953966367,-0.00419408765748752,1,15.5,29.9
1.9,11.7651694958118,18.1741773399803,4.76100700646208,-0.00419253320158752,1,15.5,29.9
1.93333333333333,11.7640787089005,18.3328039691619,4.75681602694919,-0.00419097951289782,1,15.5,29.9
1.96666666666667,11.7629724972557,18.4912908146932,4.75262660024241,-0.00418942670677236,1,15.5,29.9
2,11.761850892221,18.6496379268444,4.74843872537524,-0.00418787486717775,1,15.5,29.9
2.03333333333333,11.7607139301114,18.8078453558939,4.74425240134239,-0.00418632403284391,1,15.5,29.9
2.06666666666667,11.7595616521335,18.9659131521293,4.74006762714612,-0.00418477419626928,1,15.5,29.9
2.1,11.7583941031685,19.123841365841,4.73588440183237,-0.00418322531375637,1,15.5,29.9
2.13333333333333,11.7572113299279,19.2816300473124,4.73170272451018,-0.00418167732218677,1,15.5,29.9
2.16666666666667,11.7560133790474,19.4392792468075,4.72752259435274,-0.00418013015744378,1,15.5,29.9
2.2,11.7548002955933,19.5967890145619,4.72334401058302,-0.00417858376972102,1,15.5,29.9
2.23333333333333,11.7535721222673,19.7541594007767,4.71916697245045,-0.00417703813256942,1,15.5,29.9
2.26666666666667,11.7523288993687,19.9113904556181,4.71499147920583,-0.00417549324461852,1,15.5,29.9
2.3,11.7510706652898,20.0684822417302,4.71081898287827,-0.00417249632755379,1,15.5,29.9
2.33333333333333,11.7497974564645,20.2254349737897,4.70665773394673,-0.00416124893154102,1,15.5,29.9
2.36666666666667,11.7485093066283,20.3822492519082,4.70252203553679,-0.00413569840994121,1,15.5,29.9
2.4,11.7472062463849,20.5389262040747,4.69842866906435,-0.00409336647244007,1,15.5,29.9
2.43333333333333,11.7458883031548,20.6954675106497,4.69439345897793,-0.00403521008642205,1,15.5,29.9
2.46666666666667,11.7445555014123,20.8518753276043,4.69042886299042,-0.00396459598750987,1,15.5,29.9
2.5,11.7432078630006,21.0081521563133,4.686543059224,-0.00388580376641734,1,15.5,29.9
2.53333333333333,11.7418454075012,21.1643006892829,4.68273919985795,-0.00380385936605343,1,15.5,29.9
2.56666666666667,11.7404681527986,21.3203236405131,4.67901563403613,-0.00372356582182132,1,15.5,29.9
2.6,11.7390761110406,21.4762241900775,4.67549439099239,-0.00352124304373458,1,15.5,29.9
2.63333333333333,11.7376689431178,21.6320493394006,4.67562744831253,0.000133057320135244,1,15.5,29.9
2.66666666666667,11.7362448244997,21.788029029356,4.68536813268374,0.00974068437120756,1,15.5,29.9
2.7,11.7348008345375,21.9445189763917,4.7062773173833,0.020909184699561,4,15.5,29.9
2.73333333333333,11.7333338426511,22.1018840561196,4.73766228839113,0.0313849710078342,4,15.5,29.9
2.76666666666667,11.7318408889682,22.2604489074903,4.77802098281691,0.0403586944257812,4,15.5,29.9
2.8,11.7303192665737,22.420487880426,4.82588238944933,0.0478614066324212,4,15.5,29.9
2.83333333333333,11.7287665172231,22.5822272408518,4.87982125777571,0.0539388683263775,4,15.5,29.9
2.86666666666667,11.7271804487898,22.7458460830531,4.93843996376943,0.058618705993716,4,15.5,29.9
2.9,11.7255591480883,22.9114787134037,5.00046901692076,0.0620290531513348,4,15.5,29.9
2.93333333333333,11.7239009667339,23.0792205692306,5.06485760774613,0.0643885908253692,4,15.5,29.9
2.96666666666667,11.7222044833537,23.2491366657804,5.13083290911296,0.0659753013668265,4,15.5,29.9
3,11.7204684610428,23.4212699409656,5.197818401856,0.0669854927430391,4,15.5,29.9
3.03333333333333,11.7186918342614,23.5956454570628,5.2653105976869,0.0674921958309023,4,15.5,29.9
3.06666666666667,11.7168736984759,23.7722734278689,5.33292886201572,0.0676182643288215,4,15.5,29.9
3.1,11.7150132885323,23.9511526505323,5.40035902819175,0.067430166176031,4,15.5,29.9
3.13333333333333,11.7131099590894,24.1322729670576,5.46738303584576,0.0670240076540125,4,15.5,29.9
3.16666666666667,11.71116380099,24.3156176360263,5.53380799078075,0.0664249549349849,4,15.5,29.9
3.2,11.7091771619081,24.5011642878111,5.59950659432021,0.065698603539464,4,15.5,29.9
3.23333333333333,11.7071520346632,24.6888878091993,5.6644305499228,0.0649239556025902,4,15.5,29.9
3.26666666666667,11.7050894142666,24.8787619067349,5.72855468758046,0.0641241376576556,4,15.5,29.9
3.3,11.7029894972747,25.0707598475364,5.79187872317365,0.0633240355931912,4,15.5,29.9
3.33333333333333,11.7008519138494,25.2648551687172,5.85441837611487,0.0625396529412159,4,15.5,29.9
3.36666666666667,11.6986759429903,25.4610222422641,5.91620954489051,0.0617911687756427,4,15.5,29.9
3.4,11.6964606809251,25.6592369023485,5.9773005038468,0.061090958956294,4,15.5,29.9
3.43333333333333,11.6942051615135,25.859476482128,6.03772447608041,0.0604239722336057,4,15.5,29.9
3.46666666666667,11.6919084531261,26.0617175527438,6.09738219869194,0.0596577226115311,4,15.5,29.9
3.5,11.6895697386036,26.2659320822051,6.15613944066736,0.0587572419754245,4,15.5,29.9
3.53333333333333,11.6871883182035,26.4720890171625,6.21394036780976,0.057800927142396,4,15.5,29.9
3.56666666666667,11.6847636092774,26.6801552269788,6.27069304977917,0.0567526819694111,4,15.5,29.9
3.6,11.6822959501051,26.8900924704027,6.32617762299092,0.055484573211749,4,15.5,29.9
3.63333333333333,11.6797884297175,27.1018533071967,6.38005300613987,0.0538753831489487,4,15.5,29.9
3.66666666666667,11.6772438834665,27.3153710892201,6.43136959252086,0.0513165863809917,4,15.5,29.9
3.7,11.6746631325291,27.5306573407385,6.48920105025018,0.0578314577293213,4,15.5,29.9
3.73333333333333,11.6720422583479,27.7480671624564,6.55743666069533,0.0682356104451456,4,15.5,29.9
3.76666666666667,11.6693788937483,27.9678317944978,6.62972092417958,0.0722842634842555,4,15.5,29.9
3.8,11.6666746690417,28.1900206756326,6.70249001200137,0.0727690878217908,4,15.5,29.9
3.83333333333333,11.6639314665973,28.4146154096076,6.77386331355892,0.07137330155755,4,15.5,29.9
3.86666666666667,11.661150431838,28.6415515640816,6.84290135592449,0.0690380423655661,4,15.5,29.9
3.9,11.6583328948556,28.8707452135702,6.90931776030719,0.0664164043827027,4,15.5,29.9
3.93333333333333,11.6554832220363,29.1021092360267,6.9731622800598,0.0638445197526103,4,15.5,29.9
3.96666666666667,11.6526074075219,29.3355608955284,7.03462084412077,0.0614585640609704,4,15.5,29.9
4,11.6497093172071,29.5710240595031,7.09388723694527,0.059266392824501,4,15.5,29.9
4.03333333333333,11.6467905947508,29.8084278958379,7.15108116481431,0.057193927869033,4,15.5,29.9
4.06666666666667,11.64385149936,30.0477043943982,7.20626146987506,0.0551803050607553,4,15.5,29.9
4.1,11.6408915773017,30.2887873272834,7.25948484693798,0.053223377062916,4,15.5,29.9
4.13333333333333,11.637910120014,30.5316125545099,7.31081405700943,0.0513292100714482,4,15.5,29.9
4.16666666666667,11.6349064491847,30.7761170245349,7.36024729841369,0.0494332414042606,4,15.5,29.9
4.2,11.6318800439336,31.0222386399395,7.40788215564518,0.0476348572314915,4,15.5,29.9
4.23333333333333,11.6288305219113,31.2699203496036,7.45388387045965,0.0460017148144765,4,15.5,29.9
4.26666666666667,11.6257585250523,31.5191096582549,7.49836989720014,0.0444860267404836,4,15.5,29.9
4.3,11.6226676917337,31.7697585117441,7.54149154290314,0.0431216457030015,4,15.5,29.9
4.33333333333333,11.6195609606157,32.0218242737232,7.58341877250897,0.0419272296058315,4,15.5,29.9
4.36666666666667,11.6164409343098,32.2752699590032,7.62431608581663,0.0408973133076556,4,15.5,29.9
4.4,11.6133121898922,32.5300637195892,7.66432754564821,0.0400114598315851,4,15.5,29.9
4.43333333333333,11.6101778864713,32.7861784191102,7.70359357405211,0.0392660284038948,4,15.5,29.9
4.46666666666667,11.6070394539209,33.0435914383338,7.7422445281267,0.0386509540745923,4,15.5,29.9
4.5,11.6038972767733,33.3022843122721,7.78040214473683,0.0381576166101274,4,15.5,29.9
4.53333333333333,11.6007511944547,33.5622425251949,7.81817766967194,0.0377755249351139,4,15.5,29.9
4.56666666666667,11.5976008215108,33.8234546447329,7.85564284374509,0.0374651740731533,4,15.5,29.9
4.6,11.5944457181592,34.085911194628,7.89285035767085,0.0372075139257531,4,15.5,29.9
4.63333333333333,11.591285448482,34.349604501177,7.92985539030375,0.0370050326329068,4,15.5,29.9
4.66666666666667,11.5881195877142,34.6145286303654,7.96670285917727,0.0368474688735185,4,15.5,29.9
4.7,11.5849477272927,34.8806785000816,8.00339513977485,0.0366922805975749,4,15.5,29.9
4.73333333333333,11.581769496644,35.1480482942436,8.03988365074964,0.0364885109747934,4,15.5,29.9
4.76666666666667,11.5785855178151,35.416629187365,8.07602075878843,0.0361371080387851,4,15.5,29.9
4.8,11.5754004484992,35.6864039917725,8.11142643132633,0.0354056725379088,4,15.5,29.9
4.83333333333333,11.5722223375765,35.9573382444391,8.14545344982073,0.0340270184943936,4,15.5,29.9
4.86666666666667,11.5690601293503,36.2293737978593,8.17738026713,0.0319268173092748,4,15.5,29.9
4.9,11.5659207100726,36.5024303339715,8.20658390112406,0.0292036339940527,4,15.5,29.9
4.93333333333333,11.5628113955306,36.7764071029437,8.23247461788409,0.0258907167600331,4,15.5,29.9
4.96666666666667,11.5597381194296,37.0511804727049,8.25418759445874,0.0217129765746549,4,15.5,29.9
5,11.5567078855373,37.3265984867233,8.27106333654839,0.0168757420896419,1,15.5,29.9
5.03333333333333,11.5537255634341,37.6024966919425,8.28298142946826,0.0119180929198777,1,15.5,29.9
5.06666666666667,11.5507937613833,37.8787164665763,8.29051090747105,0.00752947800278925,1,15.5,29.9
5.1,11.5479134726881,38.1551313239455,8.29483059864974,0.00431969117868469,1,15.5,29.9
5.13333333333333,11.5450855979021,38.4316502056575,8.29684665243471,0.0020160537849705,1,15.5,29.9
5.16666666666667,11.5423134439982,38.7082077551985,8.29720775771298,0.000361105278271268,1,15.5,29.9
5.2,11.5396000729485,38.9847569909882,8.29637818220479,-0.000829575508186409,1,15.5,29.9
5.23333333333333,11.5369500299679,39.2612640966967,8.2946900258756,-0.00168815632919284,1,15.5,29.9
