Time,x_ego,y_ego,velocity,acceleration,action,x_ped,y_ped
0,11.8,8.9,7,0,1,15.5,29.9
0.0333333333333333,11.7999859837349,9.13327037932164,6.99615587660143,-0.00384412339857398,1,15.5,29.9
0.0666666666666667,11.7998982838668,9.36640659596393,6.99197054304119,-0.00418533356023243,1,15.5,29.9
0.1,11.7996910785781,9.59940072993168,6.98769850935856,-0.00427203368263829,1,15.5,29.9
0.133333333333333,11.799347598876,9.83225367586589,6.98350456874802,-0.00419394061053779,1,15.5,29.9
0.166666666666667,11.7988692225538,10.0649675635139,6.97936609588586,-0.00413847286216118,1,15.5,29.9
0.2,11.7982672802689,10.2975439057855,6.97526677406405,-0.00409932182180306,1,15.5,29.9
0.233333333333333,11.7975579283823,10.5299837890331,6.97119515090628,-0.00407162315776866,1,15.5,29.9
0.266666666666667,11.7967578983637,10.7622880064895,6.96714347594494,-0.0040516749613424,1,15.5,29.9
0.3,11.7958801235768,10.9944571437625,6.96310649937907,-0.00403697656587276,1,15.5,29.9
0.333333333333333,11.794932950446,11.2264916343317,6.95908061184481,-0.00402588753425714,1,15.5,29.9
0.366666666666667,11.7939194915962,11.4583917941082,6.95506311906007,-0.00401749278474561,1,15.5,29.9
0.4,11.7928402201982,11.6901578515584,6.95105215507582,-0.00401096398424894,1,15.5,29.9
0.433333333333333,11.7916887968012,11.9217899528342,6.94704651427163,-0.00400564080418953,1,15.5,29.9
0.466666666666667,11.7904540898445,12.1532881753622,6.9430451199096,-0.00400139436202362,1,15.5,29.9
0.5,11.7891242647632,12.3846525478904,6.93904719417615,-0.00399792573345348,1,15.5,29.9
0.533333333333333,11.7876858107561,12.615883053129,6.93505214688123,-0.00399504729491795,1,15.5,29.9
0.566666666666667,11.7861273325766,12.8469796468367,6.93105923756695,-0.00399290931428009,1,15.5,29.9
0.6,11.784442625512,13.0779422798997,6.92706778135261,-0.00399145621434283,1,15.5,29.9
0.633333333333333,11.7826294903813,13.3087709055246,6.92307733537912,-0.00399044597349008,1,15.5,29.9
0.666666666666667,11.7806881338946,13.539465482123,6.91908766289042,-0.00398967248870008,1,15.5,29.9
0.7,11.7786201643345,13.7700259755645,6.91509867019597,-0.0039889926944463,1,15.5,29.9
0.733333333333333,11.7764280456005,14.0004523607269,6.91111034035111,-0.00398832984486397,1,15.5,29.9
0.766666666666667,11.7741148201707,14.2307446221967,6.90712268374404,-0.00398765660706779,1,15.5,29.9
0.8,11.771683930628,14.4609027539342,6.90313571235876,-0.00398697138528448,1,15.5,29.9
0.833333333333333,11.7691390292039,14.6909267577669,6.89914943379798,-0.00398627856077294,1,15.5,29.9
0.866666666666667,11.7664837351072,14.9208166407688,6.89516385647525,-0.00398557732273286,1,15.5,29.9
0.9,11.7637213572835,15.1505724118623,6.89117899744361,-0.00398485903164314,1,15.5,29.9
0.933333333333333,11.7608546331008,15.3801940782079,6.8871948869835,-0.00398411046010416,1,15.5,29.9
0.966666666666667,11.7578855389992,15.6096816420403,6.8832115675834,-0.00398331940010355,1,15.5,29.9
1,11.7548152130338,15.8390350985167,6.87922908802191,-0.00398247956148623,1,15.5,29.9
1.03333333333333,11.7516440013958,16.0682544349111,6.87524749507166,-0.0039815929502538,1,15.5,29.9
1.06666666666667,11.7483716120375,16.2973396311881,6.87126682568152,-0.00398066939013919,1,15.5,29.9
1.1,11.7449973368324,16.5262906617071,6.8672871017396,-0.00397972394192436,1,15.5,29.9
1.13333333333333,11.7415202938878,16.7551074976034,6.86330832833581,-0.00397877340378283,1,15.5,29.9
1.16666666666667,11.7379396442483,16.9837901093085,6.85933049538137,-0.00397783295444309,1,15.5,29.9
1.2,11.7342547495837,17.2123384687143,6.85535358174505,-0.00397691363632013,1,15.5,29.9
1.23333333333333,11.730465254948,17.4407525506274,6.85137756072808,-0.00397602101697547,1,15.5,29.9
1.26666666666667,11.7265710984267,17.6690323333636,6.84740240563465,-0.00397515509343016,1,15.5,29.9
1.3,11.7225724634334,17.897177798537,6.8434280943486,-0.00397431128604975,1,15.5,29.9
1.33333333333333,11.7184696972504,18.1251889302569,6.83945461216834,-0.00397348218025773,1,15.5,29.9
1.36666666666667,11.7142632206658,18.3530657140313,6.83548195262312,-0.00397265954521675,1,15.5,29.9
1.4,11.7099534493564,18.5808081356785,6.83151011648089,-0.00397183614223007,1,15.5,29.9
1.43333333333333,11.705540740092,18.8084161804815,6.82753910952965,-0.00397100695123953,1,15.5,29.9
1.46666666666667,11.7010253662906,19.0358898327171,6.82356893987939,-0.00397016965026431,1,15.5,29.9
1.5,11.6964075200074,19.2632290755775,6.81959961547894,-0.00396932440044306,1,15.5,29.9
1.53333333333333,11.6916873324555,19.4904338914098,6.81563114233187,-0.00396847314707749,1,15.4972222222222,29.9
1.56666666666667,11.6868649031487,19.7175042621404,6.81166352362051,-0.00396761871135443,1,15.4888888888889,29.9
1.6,11.6819403284429,19.9444401697392,6.80769675969429,-0.0039667639262202,1,15.475,29.9
1.63333333333333,11.6769137228363,20.1712415966006,6.80373084869943,-0.0039659109948591,1,15.4555555555556,29.9
1.66666666666667,11.6717852298143,20.3979085257634,6.79976578754354,-0.00396506115589812,1,15.4305555555556,29.9
1.7,11.6665550223257,20.6244409409509,6.79580157289144,-0.00396421465209595,1,15.4,29.9
1.73333333333333,11.6612232954187,20.8508388264571,6.79183820195708,-0.0039633709343585,1,15.3666666666667,29.9
1.76666666666667,11.6557902548093,21.0771021669401,6.78787567295966,-0.003962528997425,1,15.3333333333333,29.9
1.8,11.6502561052031,21.3032309471914,6.78391398522113,-0.00396168773852157,1,15.3,29.9
1.83333333333333,11.6446210413247,21.5292251519451,6.77995313897079,-0.00396084625034288,1,15.2666666666667,29.9
1.86666666666667,11.6388852432542,21.7550847657654,6.77599313497511,-0.00396000399568308,1,15.2333333333333,29.9
1.9,11.6330488762528,21.9808097730259,6.77203397412394,-0.00395916085116355,1,15.2,29.9
1.93333333333333,11.6271120941437,22.2064001579701,6.76807565708267,-0.00395831704127581,1,15.1666666666667,29.9
1.96666666666667,11.6210750446697,22.4318559048221,6.76411818407804,-0.00395747300462812,1,15.1333333333333,29.9
2,11.6149378751339,22.6571769979127,6.76016155483781,-0.00395662924022844,1,15.1,29.9
2.03333333333333,11.608700736942,22.8823634217894,6.75620576866306,-0.00395578617475234,1,15.0666666666667,29.9
2.06666666666667,11.6023637882244,23.1074151612853,6.75225082458591,-0.00395494407715358,1,15.0333333333333,29.9
2.1,11.5959271943524,23.3323322015405,6.74829672155614,-0.00395410302976451,1,15,29.9
2.13333333333333,11.5893911266883,23.5571145279791,6.7443434586064,-0.0039532629497403,1,14.9666666666667,29.9
2.16666666666667,11.5827557602476,23.781762126256,6.740391034962,-0.00395242364439685,1,14.9333333333333,29.9
2.2,11.5760212710465,24.006274982191,6.73643945008216,-0.00395158487984659,1,14.9,29.9
2.23333333333333,11.5691878338094,24.2306530817087,6.7324887036382,-0.00395074644396054,1,14.8666666666667,29.9
2.26666666666667,11.5622556204769,24.4548964107959,6.72853879544801,-0.00394990819018748,1,14.8333333333333,29.9
2.3,11.5552247996696,24.6790049554832,6.72458972539159,-0.00394907005641709,1,14.8,29.9
2.33333333333333,11.5480955370105,24.9029787018499,6.7206414933315,-0.00394823206009409,1,14.7666666666667,29.9
2.36666666666667,11.5408679960333,25.1268176360463,6.71669409905537,-0.00394739427613278,1,14.7333333333333,29.9
2.4,11.5335423393343,25.3505217443244,6.71274754224876,-0.00394655680660971,1,14.7,29.9
2.43333333333333,11.5261187296451,25.5740910130686,6.70880182249764,-0.0039457197511199,1,14.6666666666667,29.9
2.46666666666667,11.5185973305999,25.7975254288184,6.70485693931316,-0.00394488318447817,1,14.6333333333333,29.9
2.5,11.5109783070923,26.0208249782807,6.70091289216794,-0.00394404714522256,1,14.6,29.9
2.53333333333333,11.5032618252337,26.24398964833,6.69696968053284,-0.00394321163509925,1,14.5666666666667,29.9
2.56666666666667,11.4954480520186,26.4670194259988,6.69302730390569,-0.00394237662715113,1,14.5333333333333,29.9
2.6,11.4875371548406,26.6899142984639,6.68908576182714,-0.00394154207854758,1,14.5,29.9
2.63333333333333,11.4795293010083,26.9126742530306,6.68514505388302,-0.00394070794411761,1,14.4666666666667,29.9
2.66666666666667,11.4714246573726,27.1352992771208,6.6812051796957,-0.00393987418732511,1,14.4333333333333,29.9
2.7,11.4632233901266,27.3577893582656,6.67726613890902,-0.00393904078667084,1,14.4,29.9
2.73333333333333,11.4549256647852,27.5801444841038,6.67332793117186,-0.00393820773716769,1,14.3666666666667,29.9
2.76666666666667,11.4465316463074,27.802364642385,6.66939055612424,-0.00393737504762104,1,14.3333333333333,29.9
2.8,11.4380423064089,28.0244498495163,6.66545380647998,-0.00393674964425905,1,14.3,29.9
2.83333333333333,11.429462032418,28.2464002457175,6.66151741818738,-0.00393638829260023,1,14.2666666666667,29.9
2.86666666666667,11.4207986706,28.4682161039915,6.65758110298012,-0.00393631520726068,1,14.2333333333333,29.9
2.9,11.4120649804528,28.6898978905201,6.65364466606839,-0.00393643691173029,1,14.2,29.9
2.93333333333333,11.4032776813532,28.9114462383649,6.64970804250413,-0.0039366235642575,1,14.1666666666667,29.9
2.96666666666667,11.3944572921765,29.1328619551953,6.64577246460622,-0.00393557789790311,1,14.1333333333333,29.9
3,11.3856237490654,29.3541459437613,6.6418432289393,-0.00392923566692183,1,14.1,29.9
3.03333333333333,11.3767943029183,29.5752992330842,6.63792842561272,-0.00391480332658567,1,14.0666666666667,29.9
3.06666666666667,11.3679809673268,29.7963229332556,6.63403699736842,-0.00389142824429722,1,14.0333333333333,29.9
3.1,11.359190464338,30.0172182337552,6.63017731249855,-0.00385968486987309,1,14,29.9
3.13333333333333,11.350423269519,30.2379863287365,6.62635607322357,-0.00382123927497435,1,13.9666666666667,29.9
3.16666666666667,11.3416754614881,30.4586284234941,6.62257759662796,-0.00377847659561326,1,13.9333333333333,29.9
3.2,11.332940801466,30.6791457254702,6.61883273938285,-0.00374485724510443,1,13.9,29.9
3.23333333333333,11.3242117748318,30.8995492535519,6.61626647139147,-0.00256626799138271,1,13.8666666666667,29.9
3.26666666666667,11.315478205917,31.1199388641247,6.61847254912752,0.00220607773605153,1,13.8333333333333,29.9
3.3,11.3067303348124,31.3405038268353,6.62688471086882,0.00841216174129844,1,13.8,29.9
3.33333333333333,11.297960237438,31.5614537781952,6.64157990743027,0.0146951965614459,1,13.7666666666667,29.9
3.36666666666667,11.2891600081365,31.7829933157426,6.66223502648688,0.0206551190566167,4,13.7333333333333,29.9
3.4,11.2803245503678,32.0053134136588,6.68836038176965,0.0261253552827672,4,13.7,29.9
3.43333333333333,11.2714509616533,32.2285860613505,6.71933143919841,0.0309710574287543,4,13.6666666666667,29.9
3.46666666666667,11.2625361711185,32.4529628531319,6.75456180733347,0.0352303681350623,4,13.6333333333333,29.9
3.5,11.2535788280712,32.6785767587901,6.79351584582006,0.0389540384865921,4,13.6,29.9
3.53333333333333,11.2445767143057,32.9055435859366,6.83570179729553,0.0421859514754743,4,13.5666666666667,29.9
3.56666666666667,11.2355265784047,33.1339633968637,6.8806685704244,0.0449667731288645,4,13.5333333333333,29.9
3.6,11.2264247380039,33.363921855846,6.92800856509884,0.0473399946744406,4,13.5,29.9
3.63333333333333,11.2172674457941,33.5954919937622,6.97737180410769,0.0493632390088541,4,13.4666666666667,29.9
3.66666666666667,11.208051072645,33.8287360564481,7.02846024088326,0.0510884367755615,4,13.4333333333333,29.9
3.7,11.1987721885008,34.0637070414759,7.0810128315684,0.0525525906851403,4,13.4,29.9
3.73333333333333,11.1894276165444,34.3004495775075,7.13478719990518,0.053774368336784,4,13.3666666666667,29.9
3.76666666666667,11.1800144871657,34.5390005384813,7.1895612924481,0.0547740925429183,4,13.3333333333333,29.9
3.8,11.1705302881964,34.7793899204109,7.24514657336461,0.0555852809165112,4,13.3,29.9
3.83333333333333,11.1609729027863,35.0216421148629,7.30139400774758,0.0562474343829695,4,13.2666666666667,29.9
3.86666666666667,11.1513406377645,35.2657771280506,7.35818765236514,0.0567936446175628,4,13.2333333333333,29.9
3.9,11.1416322323591,35.5118115778633,7.41543814933566,0.057250496970517,4,13.2,29.9
3.93333333333333,11.131846837879,35.7597594304298,7.47307305917984,0.0576349098441824,4,13.1666666666667,29.9
3.96666666666667,11.1219839703165,36.009632393215,7.53102746292806,0.0579544037482167,4,13.1333333333333,29.9
4,11.1120434395688,36.2614400769672,7.58923945613183,0.0582119932037752,4,13.1,29.9
4.03333333333333,11.1020252647359,36.515190055577,7.64764753690946,0.0584080807776299,4,13.0666666666667,29.9
4.06666666666667,11.091929641574,36.7708877331176,7.70618083602924,0.058533299119774,4,13.0333333333333,29.9
4.1,11.0817587875328,37.0285360449279,7.76475919380859,0.0585783577793535,4,13,29.9
4.13333333333333,11.0715234338889,37.2881355955325,7.82330438884061,0.0585451950320195,4,12.9666666666667,29.9
4.16666666666667,11.0612450060984,37.5496849248208,7.88174604993704,0.0584416610964338,4,12.9333333333333,29.9
4.2,11.050954814019,37.8131807081132,7.94001956426514,0.0582735143280937,4,12.9,29.9
4.23333333333333,11.040689078155,38.0786177446192,7.99806783674255,0.0580482724774134,4,12.8666666666667,29.9
4.26666666666667,11.0304814542783,38.3459889961488,8.05584716144026,0.0577793246977096,4,12.8333333333333,29.9
4.3,11.0203569924516,38.6152857867794,8.11331893088514,0.0574717694448825,4,12.8,29.9
4.33333333333333,11.0103277074138,38.8864969766702,8.17040553530597,0.0570866044208316,4,12.7666666666667,29.9
4.36666666666667,11.0003966550059,39.1596087214562,8.22705468251247,0.0566491472064907,4,12.7333333333333,29.9
4.4,10.9905624751024,39.4346060383296,8.28326096443183,0.0562062819193638,4,12.7,29.9
