Time,x_ego,y_ego,velocity,acceleration,action,x_ped,y_ped
0,11.8,8.9,7,0,1,15.5,29.9
0.0333333333333333,11.7999991556326,9.13327037939405,6.9961557798823,-0.00384422011770269,1,15.5,29.9
0.0666666666666667,11.7999930706864,9.36640659879788,6.99196947752536,-0.00418630235693929,1,15.5,29.9
0.1,11.799973827775,9.59940075509445,6.98769503175141,-0.00427444577395253,1,15.5,29.9
0.133333333333333,11.7999285820375,9.83225378394101,6.98349784335642,-0.00419718839498451,1,15.5,29.9
0.166666666666667,11.7998428360891,10.0649678738847,6.97935636724613,-0.00414147611029492,1,15.5,29.9
0.2,11.7997068750275,10.2975445972177,6.97525512569841,-0.00410124154771729,1,15.5,29.9
0.233333333333333,11.7995136852784,10.529985082824,6.97118297314703,-0.00407215255137494,1,15.5,29.9
0.266666666666667,11.7992604597916,10.7622901414079,6.96713183906735,-0.00405113407967939,1,15.5,29.9
0.3,11.7989476922645,10.9944603566084,6.96309591833063,-0.0040359207367251,1,15.5,29.9
0.333333333333333,11.7985777087963,11.226496150918,6.9590710638776,-0.00402485445302592,1,15.5,29.9
0.366666666666667,11.7981536724228,11.458397832945,6.95505433030232,-0.00401673357528676,1,15.5,29.9
0.4,11.7976789858861,11.6901656309351,6.95104363132107,-0.00401069898124984,1,15.5,29.9
0.433333333333333,11.797156973278,11.9217997163429,6.94703748816095,-0.00400614316011705,1,15.5,29.9
0.466666666666667,11.7965907221062,12.1533002203127,6.94303484958393,-0.00400263857702132,1,15.5,29.9
0.5,11.7959829960468,12.3846672451615,6.93903496583285,-0.00399988375107707,1,15.5,29.9
0.533333333333333,11.7953361675249,12.615900872357,6.93503730119166,-0.00399766464118745,1,15.5,29.9
0.566666666666667,11.794652154526,12.8470011680486,6.93104147310484,-0.00399582808682286,1,15.5,29.9
0.6,11.7939323695329,13.0779681869138,6.92704720913717,-0.00399426396767488,1,15.5,29.9
0.633333333333333,11.7931776978083,13.3088019748726,6.92305431591055,-0.00399289322661911,1,15.5,29.9
0.666666666666667,11.7923885194763,13.5395025710686,6.91906265630427,-0.00399165960627723,1,15.5,29.9
0.7,11.7915647797242,13.7700700093944,6.91507213264201,-0.00399052366226016,1,15.5,29.9
0.733333333333333,11.7907060993177,14.000504319739,6.91108267443042,-0.00398945821159469,1,15.5,29.9
0.766666666666667,11.7898119079715,14.2308055290551,6.90709422964447,-0.00398844478594551,1,15.5,29.9
0.8,11.7888815786098,14.4609736622843,6.90310675876453,-0.00398747087993723,1,15.5,29.9
0.833333333333333,11.7879145417805,14.691008743138,6.89912023089524,-0.00398652786929166,1,15.5,29.9
0.866666666666667,11.7869103653839,14.9209107947184,6.89513462139828,-0.00398560949695881,1,15.5,29.9
0.9,11.785868793302,15.1506798399604,6.8911499105596,-0.00398471083868035,1,15.5,29.9
0.933333333333333,11.7847897451011,15.3803159018941,6.88716608288588,-0.00398382767371697,1,15.5,29.9
0.966666666666667,11.7836732857421,15.609819003747,6.88318312669627,-0.00398295618961342,1,15.5,29.9
1,11.7825195779799,15.8391891689238,6.87920103375955,-0.00398209293671847,1,15.5,29.9
1.03333333333333,11.7813291882019,16.0683395881752,6.8700098966157,-0.00919113714385755,1,15.5,29.9
1.06666666666667,11.7801034516582,16.297010528153,6.85044409842023,-0.0195657981954627,3,15.5,29.9
1.1,11.778843653152,16.5249713606421,6.82741533747058,-0.0230287609496518,3,15.5,29.9
1.13333333333333,11.777548899929,16.7521357208048,6.80266843986097,-0.0247468976096066,3,15.5,29.9
1.16666666666667,11.7762118968016,16.9783307612967,6.76927214993946,-0.0333962899215132,3,15.5,29.9
1.2,11.7748209340325,17.2033545769704,6.73241603839088,-0.0368561115485804,3,15.5,29.9
1.23333333333333,11.7733654622502,17.4270917645846,6.69210081685877,-0.040315221532107,3,15.5,29.9
1.26666666666667,11.7718402125228,17.6494273300657,6.64834887242928,-0.0437519444294932,3,15.5,29.9
1.3,11.7702445499555,17.8702176221655,6.59941688500035,-0.0489319874289258,3,15.5,29.9
1.33333333333333,11.7685807654991,18.0893186706929,6.5470277904454,-0.0523890945549574,3,15.5,29.9
1.36666666666667,11.7668525209457,18.3066443114252,6.49292617483003,-0.0541016156153669,3,15.5,29.9
1.4,11.7650643344015,18.522108408884,6.43536861518489,-0.0575575596451356,3,15.5,29.9
1.43333333333333,11.7632210648483,18.7356248548078,6.37609968398212,-0.0592689312027774,3,15.5,29.9
1.46666666666667,11.7613272531547,18.947165330452,6.31684193975899,-0.0592577442231308,3,15.5,29.9
1.5,11.7593873463196,19.1567011671148,6.25585168005772,-0.060990259701267,3,15.5,29.9
1.53333333333333,11.7574050492183,19.3641750007538,6.19315119115228,-0.062700488905441,3,15.4777777777778,29.9
1.56666666666667,11.7553810824506,19.5695585236406,6.1304629811973,-0.0626882099549819,3,15.4111111111111,29.9
1.6,11.7533161993234,19.7728521369102,6.06778708678959,-0.0626758944077084,3,15.3,29.9
1.63333333333333,11.751211732767,19.973998478296,6.00165764748785,-0.0661294393017373,3,15.1698412698413,29.9
1.66666666666667,11.7490664215525,20.1729401722946,5.935541312887,-0.066116334600852,3,15.0460317460317,29.9
1.7,11.7468756350007,20.3696488834753,5.86771631313895,-0.0678249997480513,3,14.9285714285714,29.9
1.73333333333333,11.744630321126,20.5640962347207,5.79990529293798,-0.0678110202009661,3,14.8174603174603,29.9
1.76666666666667,11.7423184363111,20.7562534486035,5.7303645933387,-0.0695406995992798,3,14.7126984126984,29.9
1.8,11.7399263329346,20.9460630160837,5.6591165444276,-0.071248048911098,3,14.6142857142857,29.9
1.83333333333333,11.7374385332277,21.1334386908384,5.58441768576811,-0.0746988586594952,3,14.5222222222222,29.9
1.86666666666667,11.7348425569128,21.3182364706209,5.50454609212449,-0.0798715936436185,3,14.4365079365079,29.9
1.9,11.7321331671601,21.5002550160586,5.41777958712573,-0.0867665049987574,3,14.3571428571429,29.9
1.93333333333333,11.7293131872463,21.6793217933531,5.32756237954795,-0.0902172075777834,3,14.284126984127,29.9
1.96666666666667,11.7263920016991,21.8553217771335,5.23389407639028,-0.0936683031576733,3,14.2174603174603,29.9
2,11.7233860208459,22.0281404262792,5.13679615543679,-0.0970979209534883,3,14.1571428571429,29.9
2.03333333333333,11.7203164650637,22.1976633107994,5.03624693982893,-0.100549215607861,3,14.1031746031746,29.9
2.06666666666667,11.7172074166566,22.3637757341926,4.9322467072008,-0.10400023262813,3,14.0555555555556,29.9
2.1,11.7140866488535,22.5262766336838,4.81960806077073,-0.112638646430064,3,14.0142857142857,29.9
2.13333333333333,11.7109815651844,22.6849076009139,4.70007664387142,-0.11953141689931,3,13.9793650793651,29.9
2.16666666666667,11.7079155684829,22.8394967139887,4.57709832169146,-0.122978322179958,3,13.9507936507936,29.9
2.2,11.7049089055705,22.9898710446609,4.44714243387811,-0.129955887813356,3,13.9285714285714,29.9
2.23333333333333,11.7019774183817,23.1358833638788,4.31534981060683,-0.131792623271277,3,13.9126984126984,29.9
2.26666666666667,11.6991307405493,23.2774153028223,4.17827926871755,-0.137070541889276,3,13.9031746031746,29.9
2.3,11.6963742657763,23.4143210300888,4.03773017671353,-0.140549092004025,3,13.9,29.9
2.33333333333333,11.693711758657,23.5464559984345,3.89198268759786,-0.145747489115673,3,13.9,29.9
2.36666666666667,11.6911472260607,23.6736182147019,3.73931059039621,-0.152672097201648,3,13.9,29.9
2.4,11.6886837610269,23.7956061829752,3.58147121441308,-0.157839375983129,3,13.9,29.9
2.43333333333333,11.6863228408061,23.9122191243444,3.41675230792937,-0.164718906483712,3,13.9,29.9
2.46666666666667,11.684064605289,24.0233430097566,3.2520717850047,-0.16468052292467,3,13.9,29.9
2.5,11.6819071732352,24.128950103723,3.08569086279118,-0.16638092221352,3,13.9,29.9
2.53333333333333,11.679849405054,24.2289841227212,2.91763500325579,-0.168055859535393,3,13.9,29.9
2.56666666666667,11.6778923930533,24.3233892933011,2.7479067632389,-0.169728240016885,3,13.9,29.9
2.6,11.6760391968555,24.4121386635002,2.57823012926156,-0.169676633977342,3,13.9,29.9
2.63333333333333,11.6742942840644,24.4952340689175,2.40860627264548,-0.169623856616077,3,13.9,29.9
2.66666666666667,11.6726635548482,24.572648335418,2.23729160938875,-0.17131466325673,3,13.9,29.9
2.7,11.671153378414,24.6442717451004,2.06128482920346,-0.176006780185294,3,13.9,29.9
2.73333333333333,11.6697684933339,24.7100036802338,1.88395963211428,-0.177325197089176,3,13.9,29.9
2.76666666666667,11.6685115319425,24.7697870199741,1.70434597300208,-0.179613659112199,3,13.9,29.9
2.8,11.6673843560046,24.8235498610757,1.52266528978394,-0.181680683218145,3,13.9,29.9
2.83333333333333,11.6663868974577,24.8712831447591,1.3425042109665,-0.180161078817438,3,13.9,29.9
2.86666666666667,11.6655169294416,24.9130675045276,1.16565488964255,-0.176849321323949,3,13.9,29.9
2.9,11.664771417084,24.9490138496474,0.992161680280158,-0.173493209362393,3,13.9,29.9
2.93333333333333,11.6641471968045,24.9792370025002,0.822224479266161,-0.169937201013997,3,13.9,29.9
2.96666666666667,11.663641071804,25.0038573006454,0.655898848074678,-0.166325631191483,3,13.9,29.9
3,11.6632500168276,25.0229936585329,0.49312480599758,-0.162774042077098,3,13.9,29.9
3.03333333333333,11.6629711675627,25.0367657609695,0.333985031480033,-0.159139774517546,3,13.9,29.9
3.06666666666667,11.6628018132099,25.0452945057957,0.178447050317288,-0.155537981162745,3,13.9,29.9
3.1,11.6627394171094,25.0487000269939,0.0266468342917351,-0.151800216025553,3,13.9,29.9
3.13333333333333,11.6627726401685,25.0475715860399,0.0539601644570613,0.0273133301653262,4,13.9,29.9
3.16666666666667,11.6628268052259,25.0457752852309,0.00298656731687577,-0.0509735971401855,3,13.9,29.9
3.2,11.6628268052259,25.0457752852309,0.00427358620821157,0.0012870188913358,5,13.9,29.9
3.23333333333333,11.6628268052259,25.0457752852309,0.00605114685249529,0.00177756064428372,5,13.9,29.9
3.26666666666667,11.6628268052259,25.0457752852309,0.00815689804543585,0.00210575119294056,5,13.9,29.9
3.3,11.6628268052259,25.0457752852309,0.0103787363735947,0.00222183832815889,5,13.9,29.9
3.33333333333333,11.6628268052259,25.0457752852309,0.0124860597833769,0.00210732340978221,5,13.8991319444444,29.9
3.36666666666667,11.6628268052259,25.0457752852309,0.0142579360297717,0.00177187624639477,5,13.8965277777778,29.9
3.4,11.6628268052259,25.0457752852309,0.0155062398874266,0.00124830385765486,5,13.8921875,29.9
3.43333333333333,11.6628268052259,25.0457752852309,0.0160925432457407,0.000586303358314123,5,13.8861111111111,29.9
3.46666666666667,11.6628268052259,25.0457752852309,0.0159382446761474,-0.000154298569593262,5,13.8782986111111,29.9
3.5,11.6628268052259,25.0457752852309,0.0150280520160362,-0.000910192660111282,5,13.86875,29.9
3.53333333333333,11.6628268052259,25.0457752852309,0.0134074486956974,-0.00162060332033874,5,13.8574652777778,29.9
3.56666666666667,11.6628268052259,25.0457752852309,0.0111751613287317,-0.00223228736696566,5,13.8444444444444,29.9
3.6,11.6628268052259,25.0457752852309,0.00847189472332033,-0.00270326660541141,5,13.8296875,29.9
3.63333333333333,11.6628268052259,25.0457752852309,0.00546671445742175,-0.00300518026589858,5,13.8131944444444,29.9
3.66666666666667,11.6628268052259,25.0457752852309,0.00234244917938029,-0.00312426527804146,5,13.7949652777778,29.9
3.7,11.6628268052259,25.0457752852309,0.000718625683295007,-0.00162382349608528,5,13.775,29.9
3.73333333333333,11.6628268052259,25.0457752852309,0.00354775031795553,0.00282912463466052,5,13.7532986111111,29.9
3.76666666666667,11.6628268052259,25.0457752852309,0.006000458721244,0.00245270840328847,5,13.7298611111111,29.9
3.8,11.6628268052259,25.0457752852309,0.00796461203260112,0.00196415331135712,5,13.7046875,29.9
3.83333333333333,11.6628268052259,25.0457752852309,0.00936539985596515,0.00140078782336403,5,13.6777777777778,29.9
3.86666666666667,11.6628268052259,25.0457752852309,0.0101672795185682,0.000801879662603007,5,13.6491319444444,29.9
3.9,11.6628268052259,25.0457752852309,0.0103730478381005,0.000205768319532338,5,13.61875,29.9
3.93333333333333,11.6628268052259,25.0457752852309,0.0100204207347557,-0.000352627103344804,5,13.5866319444444,29.9
3.96666666666667,11.6628268052259,25.0457752852309,0.00917662631632135,-0.000843794418434338,5,13.5527777777778,29.9
4,11.6628268052259,25.0457752852309,0.0079315947658491,-0.00124503155047226,5,13.5171875,29.9
4.03333333333333,11.6628268052259,25.0457752852309,0.00639035532398924,-0.00154123944185985,5,13.4798611111111,29.9
4.06666666666667,11.6628268052259,25.0457752852309,0.00466523198001134,-0.0017251233439779,5,13.4407986111111,29.9
4.1,11.6628268052259,25.0457752852309,0.00286837267909096,-0.00179685930092038,5,13.4,29.9
4.13333333333333,11.6628268052259,25.0457752852309,0.00110506097464697,-0.00176331170444399,5,13.3574652777778,29.9
4.16666666666667,11.6628268052259,25.0457752852309,0.000531846140116811,-0.000573214834530157,5,13.3131944444444,29.9
4.2,11.6628268052259,25.0457752852309,0.00196612530442347,0.00143427916430666,5,13.2671875,29.9
4.23333333333333,11.6628268052259,25.0457752852309,0.00314092530324431,0.00117479999882083,5,13.2194444444444,29.9
4.26666666666667,11.6628268052259,25.0457752852309,0.00402003187498298,0.000879106571738671,5,13.1699652777778,29.9
4.3,11.6628268052259,25.0457752852309,0.0045877486237064,0.000567716748723425,5,13.11875,29.9
4.33333333333333,11.6628268052259,25.0457752852309,0.00484756097000682,0.000259812346300424,5,13.0657986111111,29.9
4.36666666666667,11.6628268052259,25.0457752852309,0.00481980668475439,-2.77542852524307e-05,5,13.0111111111111,29.9
4.4,11.6628268052259,25.0457752852309,0.00453861168052896,-0.000281195004225432,5,12.9546875,29.9
4.43333333333333,11.6628268052259,25.0457752852309,0.00404836395514819,-0.000490247725380771,5,12.8965277777778,29.9
4.46666666666667,11.6628268052259,25.0457752852309,0.0033999937392255,-0.000648370215922691,5,12.8366319444444,29.9
4.5,11.6628268052259,25.0457752852309,0.00264730682261322,-0.000752686916612275,5,12.775,29.9
4.53333333333333,11.6628268052259,25.0457752852309,0.00184358420777541,-0.000803722614837815,5,12.7116319444444,29.9
4.56666666666667,11.6628268052259,25.0457752852309,0.00103861848626128,-0.000804965721514132,5,12.6465277777778,29.9
4.6,11.6628268052259,25.0457752852309,0.000276309528353944,-0.000762308957907333,5,12.5796875,29.9
4.63333333333333,11.6628268052259,25.0457752852309,0.000407107121608832,0.000130797593254889,5,12.5111111111111,29.9
4.66666666666667,11.6628268052259,25.0457752852309,0.000984173090450108,0.000577065968841276,5,12.4407986111111,29.9
4.7,11.6628268052259,25.0457752852309,0.00143667799850917,0.00045250490805906,5,12.36875,29.9
4.73333333333333,11.6628268052259,25.0457752852309,0.00175554120074452,0.00031886320223535,5,12.2949652777778,29.9
4.76666666666667,11.6628268052259,25.0457752852309,0.0019401856599538,0.000184644459209285,5,12.2194444444444,29.9
4.8,11.6628268052259,25.0457752852309,0.00199750483334234,5.73191733885387e-05,5,12.1421875,29.9
4.83333333333333,11.6628268052259,25.0457752852309,0.00194053447114061,-5.69703622017277e-05,5,12.0631944444444,29.9
4.86666666666667,11.6628268052259,25.0457752852309,0.00178694408604466,-0.000153590385095957,5,11.9824652777778,29.9
4.9,11.6628268052259,25.0457752852309,0.00155745848108067,-0.000229485604963992,5,11.9,29.9
4.93333333333333,11.6628268052259,25.0457752852309,0.00127430936221699,-0.000283149118863673,5,11.8157986111111,29.9
4.96666666666667,11.6628268052259,25.0457752852309,0.000959802145959723,-0.00031450721625727,5,11.7298611111111,29.9
5,11.6628268052259,25.0457752852309,0.000635065115159745,-0.000324737030799978,5,11.6421875,29.9
5.03333333333333,11.6628268052259,25.0457752852309,0.000319028566954214,-0.000316036548205531,5,11.5527777777778,29.9
5.06666666666667,11.6628268052259,25.0457752852309,2.7661911130332e-05,-0.000291366655823882,5,11.4616319444444,29.9
5.1,11.6628268052259,25.0457752852309,0.000226521989372385,0.000198860078242053,5,11.36875,29.9
5.13333333333333,11.6628268052259,25.0457752852309,0.000434702623875609,0.000208180634503225,5,11.2741319444444,29.9
5.16666666666667,11.6628268052259,25.0457752852309,0.00059174915261711,0.0001570465287415,5,11.1777777777778,29.9
5.2,11.6628268052259,25.0457752852309,0.000696011432177265,0.000104262279560156,5,11.0796875,29.9
5.23333333333333,11.6628268052259,25.0457752852309,0.000748944413088085,5.29329809108196e-05,5,10.9798611111111,29.9
5.26666666666667,11.6628268052259,25.0457752852309,0.00075460971899155,5.66530590346539e-06,5,10.8782986111111,29.9
5.3,11.6628268052259,25.0457752852309,0.000719099252781571,-3.55104662099787e-05,5,10.775,29.9
5.33333333333333,11.6628268052259,25.0457752852309,0.000649923976222666,-6.91752765589059e-05,5,10.6699652777778,29.9
5.36666666666667,11.6628268052259,25.0457752852309,0.000555407057216715,-9.45169190059503e-05,5,10.5631944444444,29.9
5.4,11.6628268052259,25.0457752852309,0.000444114919323522,-0.000111292137893194,5,10.4546875,29.9
5.43333333333333,11.6628268052259,25.0457752852309,0.000324352930290328,-0.000119761989033194,5,10.3444444444444,29.9
5.46666666666667,11.6628268052259,25.0457752852309,0.000203745084998508,-0.000120607845291819,5,10.2324652777778,29.9
5.5,11.6628268052259,25.0457752852309,8.89095832475534e-05,-0.000114835501750955,5,10.11875,29.9
5.53333333333333,11.6628268052259,25.0457752852309,1.47648845122835e-05,-7.41446987352699e-05,5,10.0032986111111,29.9
5.56666666666667,11.6628268052259,25.0457752852309,0.000103243693313726,8.84788088014424e-05,5,9.88611111111111,29.9
5.6,11.6628268052259,25.0457752852309,0.000173878606657814,7.06349133440882e-05,5,9.7671875,29.9
5.63333333333333,11.6628268052259,25.0457752852309,0.000225359010615471,5.14804039576573e-05,5,9.64652777777778,29.9
5.66666666666667,11.6628268052259,25.0457752852309,0.00025759618980684,3.22371791913686e-05,5,9.52413194444444,29.9
5.7,11.6628268052259,25.0457752852309,0.00027155653529444,1.39603454876002e-05,5,9.4,29.9
5.73333333333333,11.6628268052259,25.0457752852309,0.00026906018213966,-2.49635315477967e-06,5,9.27413194444444,29.9
5.76666666666667,11.6628268052259,25.0457752852309,0.000252561161637738,-1.64990205019223e-05,5,9.14652777777778,29.9
5.8,11.6628268052259,25.0457752852309,0.000224923890890224,-2.76372707475145e-05,5,9.0171875,29.9
5.83333333333333,11.6628268052259,25.0457752852309,0.000189208905197543,-3.57149856926804e-05,5,8.88611111111111,29.9
5.86666666666667,11.6628268052259,25.0457752852309,0.000148478370727087,-4.07305344704559e-05,5,8.75329861111111,29.9
5.9,11.6628268052259,25.0457752852309,0.000105629296025335,-4.28490747017522e-05,5,8.61875,29.9
5.93333333333333,11.6628268052259,25.0457752852309,6.3259676247498e-05,-4.23696197778372e-05,5,8.48246527777778,29.9
5.96666666666667,11.6628268052259,25.0457752852309,2.35702151261551e-05,-3.96894611213429e-05,5,8.34444444444444,29.9
6,11.6628268052259,25.0457752852309,1.16980908990878e-05,-1.18721242270673e-05,5,8.2046875,29.9
6.03333333333333,11.6628268052259,25.0457752852309,4.12922544216591e-05,2.95941635225713e-05,5,8.06319444444445,29.9
6.06666666666667,11.6628268052259,25.0457752852309,0.000163057299936436,0.000121765045514777,5,7.91996527777778,29.9
6.1,11.6628179257531,25.0462419625371,0.0250109227852911,0.0248478654853547,4,7.775,29.9
6.13333333333333,11.662785814891,25.0479295945524,0.0762013986699002,0.051190475884609,4,7.62829861111111,29.9
6.16666666666667,11.6627214120617,25.0513139526308,0.126780652054882,0.0505792533849815,4,7.47986111111111,29.9
6.2,11.662625177228,25.0563695663965,0.176463368889845,0.0496827168349631,4,7.3296875,29.9
6.23333333333333,11.6624976960989,25.063063043383,0.225053312081462,0.0485899431916175,4,7.17777777777778,29.9
6.26666666666667,11.6623396200018,25.071355843368,0.272446272108226,0.0473929600267639,4,7.02413194444444,29.9
6.3,11.6621515805298,25.0812084649251,0.318679038713658,0.0462327666054321,4,6.86875,29.9
6.33333333333333,11.6619341319676,25.0925832742421,0.3638082794156,0.0451292407019415,4,6.71163194444445,29.9
6.36666666666667,11.661687752751,25.1054443452491,0.40787933150758,0.0440710520919799,4,6.55277777777778,29.9
6.4,11.6614128526455,25.1197571242222,0.450929467453527,0.0430501359459471,4,6.3921875,29.9
