Time,x_ego,y_ego,velocity,acceleration,action,x_ped,y_ped
0,11.8,15.9,7,0,1,15.5,29.9
0.0333333333333333,11.8000132985869,16.1332703793289,6.99615586691518,-0.00384413308481779,1,15.4502170138889,29.9
0.0666666666666667,11.8000965079353,16.3664065962481,6.99197043607711,-0.00418543083806888,1,15.4008680555556,29.9
0.1,11.8002946639149,16.5994007322073,6.98769828271194,-0.00427215336516973,1,15.351953125,29.9
0.133333333333333,11.8006311203232,16.832253682739,6.98350456097671,-0.00419372173523147,1,15.3034722222222,29.9
0.166666666666667,11.8011140218198,17.064967571868,6.97936691440977,-0.00413764656693871,1,15.2554253472222,29.9
0.2,11.801742104054,17.297543894078,6.97526907583092,-0.00409783857884882,1,15.2078125,29.9
0.233333333333333,11.8025091368381,17.5299837015278,6.97119945091263,-0.00406962491829432,1,15.1606336805556,29.9
0.266666666666667,11.8034068636705,17.7622877397141,6.96714992399518,-0.00404952691745297,1,15.1138888888889,29.9
0.3,11.8044266499994,17.994456542946,6.96311486331454,-0.00403506068063475,1,15.067578125,29.9
0.333333333333333,11.8055602261851,18.2264904999684,6.95909035044024,-0.00402451287430594,1,15.0217013888889,29.9
0.366666666666667,11.8067999299861,18.4583898984366,6.95507362933896,-0.00401672110127471,1,14.9762586805556,29.9
0.4,11.8081387696964,18.6901549548081,6.95106273697281,-0.00401089236615615,1,14.93125,29.9
0.433333333333333,11.8095704995856,18.9217858342164,6.94705626449088,-0.00400647248192154,1,14.8866753472222,29.9
0.466666666666667,11.8110897721878,19.1532826634437,6.94305320263017,-0.00400306186071742,1,14.8425347222222,29.9
0.5,11.8126923389946,19.3846455392257,6.93905283691907,-0.00400036571109741,1,14.798828125,29.9
0.533333333333333,11.8143752254235,19.6158745336017,6.93505467082981,-0.00399816608925985,1,14.7555555555556,29.9
0.566666666666667,11.8161368047102,19.8469696976405,6.93105836522492,-0.00399630560489328,1,14.7127170138889,29.9
0.6,11.8179767251644,20.0779310645149,6.92706368935402,-0.00399467587089575,1,14.6703125,29.9
0.633333333333333,11.8198956883151,20.3087586525331,6.92307048224243,-0.00399320711159046,1,14.6283420138889,29.9
0.666666666666667,11.8218951154314,20.5394524683937,6.91907862426714,-0.00399185797529356,1,14.5868055555556,29.9
0.7,11.8239750528951,20.7697527425513,6.89950195293479,-0.0195766713323486,3,14.545703125,29.9
0.733333333333333,11.8261329207807,20.9990535101927,6.85915436839509,-0.0403475845396946,3,14.5050347222222,29.9
0.766666666666667,11.828364788728,21.2266918591187,6.79980459335838,-0.059349775036714,3,14.4648003472222,29.9
0.8,11.8306665412297,21.452149222318,6.72834417553581,-0.0714604178225713,3,14.425,29.9
0.833333333333333,11.8330336641982,21.675022301696,6.64479738590252,-0.0835467896332869,3,14.3856336805556,29.9
0.866666666666667,11.8354599684525,21.8948501253118,6.54567890024804,-0.0991184856544853,3,14.3467013888889,29.9
0.9,11.8379389150826,22.1112582890888,6.43966751294903,-0.106011387299008,3,14.308203125,29.9
0.933333333333333,11.8404651599771,22.3241035338256,6.3319531223723,-0.107714390576731,3,14.2701388888889,29.9
0.966666666666667,11.8430331147133,22.5332709884783,6.21904884024302,-0.11290428212928,3,14.2325086805556,29.9
1,11.8456349407,22.7384441915589,6.09234520619452,-0.126703634048493,3,14.1953125,29.9
1.03333333333333,11.8482613524746,22.9391915794257,5.95354448045048,-0.138800725744039,3,14.1585503472222,29.9
1.06666666666667,11.8509039329474,23.1351968283413,5.8078583521322,-0.145686128318285,3,14.1222222222222,29.9
1.1,11.8535549389733,23.326230138506,5.65526615652852,-0.15259219560368,3,14.086328125,29.9
1.13333333333333,11.8562067567214,23.5120904590693,5.49751282905057,-0.157753327477945,3,14.0508680555556,29.9
1.16666666666667,11.8588509055316,23.6925193788492,5.32941103877914,-0.168101790271437,3,14.0158420138889,29.9
1.2,11.8614779651502,23.8672007696691,5.1526842277732,-0.176726811005941,3,13.98125,29.9
1.23333333333333,11.8640792249971,24.0359050171015,4.97079961582445,-0.18188461194875,3,13.9470920138889,29.9
1.26666666666667,11.8666467576526,24.1984890088602,4.78548014395485,-0.185319471869597,3,13.9133680555556,29.9
1.3,11.869172425936,24.3548096586709,4.59500428244392,-0.19047586151093,3,13.9133680555556,29.9
1.33333333333333,11.8716483308754,24.5047529662689,4.40283873038013,-0.192165552063786,3,13.9133680555556,29.9
1.36666666666667,11.8740668705292,24.6482327020776,4.20715767688809,-0.19568105349204,3,13.9133680555556,29.9
1.4,11.8764200343684,24.7851308554019,4.00794014644506,-0.199217530443034,3,13.9133680555556,29.9
1.43333333333333,11.8786998841577,24.915330090342,3.80521063185132,-0.202729514593738,3,13.9133680555556,29.9
1.46666666666667,11.8808986015778,25.0387140210628,3.5990024450486,-0.206208186802717,3,13.9133680555556,29.9
1.5,11.8830085166091,25.1551672077072,3.3893395628187,-0.2096628822299,3,13.9133680555556,29.9
1.53333333333333,11.8850216928908,25.2645461932479,3.17451712732516,-0.214822435493546,3,13.9133680555556,29.9
1.56666666666667,11.8869307710804,25.3667370809116,2.95801383495643,-0.216503292368727,3,13.9133680555556,29.9
1.6,11.8887285300465,25.461626331774,2.73637249126524,-0.221641343691192,3,13.9133680555556,29.9
1.63333333333333,11.890408344947,25.5491293672621,2.5147879555149,-0.221584535750341,3,13.9133680555556,29.9
1.66666666666667,11.8919651164943,25.6292482540136,2.29326465705594,-0.221523298458954,3,13.9133680555556,29.9
1.7,11.8933942149223,25.7019867825609,2.07205565796301,-0.221208999092938,3,13.9133680555556,29.9
1.73333333333333,11.8946922107483,25.7673824449947,1.85293888154415,-0.219116776418854,3,13.9133680555556,29.9
1.76666666666667,11.8958572117344,25.8255268274376,1.63698897514577,-0.215949906398383,3,13.9133680555556,29.9
1.8,11.8968882897915,25.876531860237,1.42454185073386,-0.212447124411908,3,13.9133680555556,29.9
1.83333333333333,11.8977852213747,25.9205176515649,1.21577995101214,-0.208761899721715,3,13.9133680555556,29.9
1.86666666666667,11.8985483516387,25.9576088169133,1.01080444205126,-0.204975508960888,3,13.9133680555556,29.9
1.9,11.8991785250691,25.987934928077,0.809848708806676,-0.200955733244581,3,13.9133680555556,29.9
1.93333333333333,11.8996770553292,26.0116329804585,0.613032320320624,-0.196816388486052,3,13.9133680555556,29.9
1.96666666666667,11.9000455501094,26.0288405446141,0.420363648882025,-0.192668671438599,3,13.9133680555556,29.9
2,11.9002858891923,26.039697789907,0.231935679147157,-0.188427969734868,3,13.9133680555556,29.9
2.03333333333333,11.9004001474782,26.0443458397756,0.0477843294882864,-0.18415134965887,3,13.9133680555556,29.9
2.06666666666667,11.9004220737126,26.0448215983408,0.0509941052375017,0.0032097757492153,5,13.9133680555556,29.9
2.1,11.9003835292024,26.0431232091887,0.00281623146162462,-0.0481778737758771,3,13.9133680555556,29.9
2.13333333333333,11.9003835292024,26.0431232091887,0.00456391068127451,0.00174767921964988,5,13.9133680555556,29.9
2.16666666666667,11.9003835292024,26.0431232091887,0.00689070291764714,0.00232679223637264,5,13.9133680555556,29.9
2.2,11.9003835292024,26.0431232091887,0.00959406253392611,0.00270335961627896,5,13.9133680555556,29.9
2.23333333333333,11.9003835292024,26.0431232091887,0.0124141241565974,0.00282006162267134,5,13.9133680555556,29.9
2.26666666666667,11.9003835292024,26.0431232091887,0.0150709963256267,0.00265687216902923,5,13.9133680555556,29.9
2.3,11.9003835292024,26.0431232091887,0.0172982803243709,0.00222728399874427,5,13.9133680555556,29.9
2.33333333333333,11.9003835292024,26.0431232091887,0.018870510812304,0.00157223048793308,5,13.9133680555556,29.9
2.36666666666667,11.9003835292024,26.0431232091887,0.0196230865117458,0.000752575699441767,5,13.9133680555556,29.9
2.4,11.9003835292024,26.0431232091887,0.019464096828243,-0.000158989683502819,5,13.9133680555556,29.9
2.43333333333333,11.9003835292024,26.0431232091887,0.0183781971205435,-0.00108589970769948,5,13.9133680555556,29.9
2.46666666666667,11.9003835292024,26.0431232091887,0.0164233006621273,-0.00195489645841619,5,13.9133680555556,29.9
2.5,11.9003835292024,26.0431232091887,0.0137213147136194,-0.00270198594850786,5,13.9133680555556,29.9
2.53333333333333,11.9003835292024,26.0431232091887,0.0104444424289788,-0.0032768722846406,5,13.9133680555556,29.9
2.56666666666667,11.9003835292024,26.0431232091887,0.00679870586076598,-0.00364573656821286,5,13.9133680555556,29.9
2.6,11.9003835292024,26.0431232091887,0.00300633335774905,-0.00379237250301694,5,13.9133680555556,29.9
2.63333333333333,11.9003835292024,26.0431232091887,0.0007114795128529,-0.00229485384489615,5,13.9133680555556,29.9
2.66666666666667,11.9003835292024,26.0431232091887,0.00415015428382589,0.00343867477097299,5,13.9133680555556,29.9
2.7,11.9003835292024,26.0431232091887,0.00713466879771569,0.00298451451388979,5,13.9133680555556,29.9
2.73333333333333,11.9003835292024,26.0431232091887,0.00952918431859642,0.00239451552088073,5,13.9133680555556,29.9
2.76666666666667,11.9003835292024,26.0431232091887,0.0112430212254735,0.00171383690687709,5,13.9133680555556,29.9
2.8,11.9003835292024,26.0431232091887,0.0122329517366403,0.000989930511166751,5,13.9133680555556,29.9
2.83333333333333,11.9003835292024,26.0431232091887,0.0125020468170093,0.000269095080368997,5,13.9133680555556,29.9
2.86666666666667,11.9003835292024,26.0431232091887,0.0120955304921292,-0.000406516324880046,5,13.9133680555556,29.9
2.9,11.9003835292024,26.0431232091887,0.0110942503621405,-0.00100128012998876,5,13.9133680555556,29.9
2.93333333333333,11.9003835292024,26.0431232091887,0.00960646568179088,-0.00148778468034957,5,13.9133680555556,29.9
2.96666666666667,11.9003835292024,26.0431232091887,0.00775868619471622,-0.00184777948707466,5,13.9133680555556,29.9
3,11.9003835292024,26.0431232091887,0.00568627210506993,-0.00207241408964629,5,13.9133680555556,29.9
3.03333333333333,11.9003835292024,26.0431232091887,0.00352443714316359,-0.00216183496190635,5,13.9133680555556,29.9
3.06666666666667,11.9003835292024,26.0431232091887,0.00140019348211438,-0.00212424366104921,5,13.9133680555556,29.9
3.1,11.9003835292024,26.0431232091887,0.000574349027967865,-0.000825844454146511,5,13.9133680555556,29.9
3.13333333333333,11.9003835292024,26.0431232091887,0.00230705461879729,0.00173270559082943,5,13.9133680555556,29.9
3.16666666666667,11.9003835292024,26.0431232091887,0.00372906817482244,0.00142201355602515,5,13.9133680555556,29.9
3.2,11.9003835292024,26.0431232091887,0.004796350368284,0.00106728219346156,5,13.9133680555556,29.9
3.23333333333333,11.9003835292024,26.0431232091887,0.00548954902229849,0.000693198654014485,5,13.9133680555556,29.9
3.26666666666667,11.9003835292024,26.0431232091887,0.00581240690087023,0.000322857878571746,5,13.9133680555556,29.9
3.3,11.9003835292024,26.0431232091887,0.00578897407332909,-2.34328275411462e-05,5,13.9133680555556,29.9
3.33333333333333,11.9003835292024,26.0431232091887,0.00545993520533557,-0.000329038867993522,5,13.9133680555556,29.9
3.36666666666667,11.9003835292024,26.0431232091887,0.00487837926855826,-0.000581555936777301,5,13.9133680555556,29.9
3.4,11.9003835292024,26.0431232091887,0.00410533344805227,-0.000773045820505996,5,13.9133680555556,29.9
3.43333333333333,11.9003835292024,26.0431232091887,0.00320535784396005,-0.000899975604092218,5,13.9133680555556,29.9
3.46666666666667,11.9003835292024,26.0431232091887,0.00224245708382488,-0.000962900760135165,5,13.9133680555556,29.9
3.5,11.9003835292024,26.0431232091887,0.00127651376281352,-0.000965943321011367,5,13.9133680555556,29.9
3.53333333333333,11.9003835292024,26.0431232091887,0.000360391347260298,-0.00091612241555322,5,13.9133680555556,29.9
3.56666666666667,11.9003835292024,26.0431232091887,0.000462204799889106,0.000101813452628809,5,13.9133680555556,29.9
3.6,11.9003835292024,26.0431232091887,0.00115807638945955,0.00069587158957044,5,13.9133680555556,29.9
3.63333333333333,11.9003835292024,26.0431232091887,0.00170511064072385,0.000547034251264299,5,13.9133680555556,29.9
3.66666666666667,11.9003835292024,26.0431232091887,0.00209215112919137,0.000387040488467527,5,13.9133680555556,29.9
3.7,11.9003835292024,26.0431232091887,0.00231825798609525,0.000226106856903879,5,13.9133680555556,29.9
3.73333333333333,11.9003835292024,26.0431232091887,0.00239147807781006,7.32200917148052e-05,5,13.9133680555556,29.9
3.76666666666667,11.9003835292024,26.0431232091887,0.00232725912089582,-6.42189569142384e-05,5,13.9133680555556,29.9
3.8,11.9003835292024,26.0431232091887,0.00214664523817312,-0.000180613882722702,5,13.9133680555556,29.9
3.83333333333333,11.9003835292024,26.0431232091887,0.00187438633707194,-0.000272258901101174,5,13.9133680555556,29.9
3.86666666666667,11.9003835292024,26.0431232091887,0.00153708137557367,-0.000337304961498273,5,13.9133680555556,29.9
3.9,11.9003835292024,26.0431232091887,0.00116145778919748,-0.000375623586376193,5,13.9133680555556,29.9
3.93333333333333,11.9003835292024,26.0431232091887,0.000772867895900943,-0.000388589893296533,5,13.9133680555556,29.9
3.96666666666667,11.9003835292024,26.0431232091887,0.000394059756758805,-0.000378808139142138,5,13.9133680555556,29.9
4,11.9003835292024,26.0431232091887,4.42563974761176e-05,-0.000349803359282688,5,13.9133680555556,29.9
4.03333333333333,11.9003835292024,26.0431232091887,0.000261445077333076,0.000217188679856958,5,13.9133680555556,29.9
4.06666666666667,11.9003835292024,26.0431232091887,0.000512362956841741,0.000250917879508666,5,13.9133680555556,29.9
4.1,11.9003835292024,26.0431232091887,0.000702234255409918,0.000189871298568177,5,13.9133680555556,29.9
4.13333333333333,11.9003835292024,26.0431232091887,0.000828970200783743,0.000126735945373824,5,13.9133680555556,29.9
4.16666666666667,11.9003835292024,26.0431232091887,0.000894211192772113,6.52409919883707e-05,5,13.9133680555556,29.9
4.2,11.9003835292024,26.0431232091887,0.000902733578423576,8.52238565146287e-06,5,13.9133680555556,29.9
4.23333333333333,11.9003835292024,26.0431232091887,0.000861761898549094,-4.09716798744827e-05,5,13.9133680555556,29.9
4.26666666666667,11.9003835292024,26.0431232091887,0.000780238288962641,-8.15236095864532e-05,5,13.9133680555556,29.9
4.3,11.9003835292024,26.0431232091887,0.000668096042099118,-0.000112142246863522,5,13.9133680555556,29.9
4.33333333333333,11.9003835292024,26.0431232091887,0.000535577602718912,-0.000132518439380206,5,13.9133680555556,29.9
4.36666666666667,11.9003835292024,26.0431232091887,0.000392629165282641,-0.000142948437436271,5,13.9133680555556,29.9
4.4,11.9003835292024,26.0431232091887,0.000248395224094737,-0.000144233941187904,5,13.9133680555556,29.9
4.43333333333333,11.9003835292024,26.0431232091887,0.000110827511155586,-0.00013756771293915,5,13.9133680555556,29.9
4.46666666666667,11.9003835292024,26.0431232091887,1.35857299610317e-05,-9.72417811945547e-05,5,13.9133680555556,29.9
4.5,11.9003835292024,26.0431232091887,0.000119971814605033,0.000106386084644001,5,13.9133680555556,29.9
4.53333333333333,11.9003835292024,26.0431232091887,0.000205115166153368,8.51433515483355e-05,5,13.9133680555556,29.9
4.56666666666667,11.9003835292024,26.0431232091887,0.000267401553729168,6.22863875757992e-05,5,13.9133680555556,29.9
4.6,11.9003835292024,26.0431232091887,0.00030668183224976,3.92802785205919e-05,5,13.9133680555556,29.9
4.63333333333333,11.9003835292024,26.0431232091887,0.000324074134867052,1.73923026172922e-05,5,13.9133680555556,29.9
4.66666666666667,11.9003835292024,26.0431232091887,0.000321724225638414,-2.34990922863809e-06,5,13.9133680555556,29.9
4.7,11.9003835292024,26.0431232091887,0.000302543254842512,-1.91809707959019e-05,5,13.9133680555556,29.9
4.73333333333333,11.9003835292024,26.0431232091887,0.000269940673927505,-3.26025809150069e-05,5,13.9133680555556,29.9
4.76666666666667,11.9003835292024,26.0431232091887,0.00022756779385903,-4.23728800684751e-05,5,13.9133680555556,29.9
4.8,11.9003835292024,26.0431232091887,0.000179084653136824,-4.84831407222063e-05,5,13.9133680555556,29.9
4.83333333333333,11.9003835292024,26.0431232091887,0.000127959739047769,-5.11249140890543e-05,5,13.9133680555556,29.9
4.86666666666667,11.9003835292024,26.0431232091887,7.73088993138604e-05,-5.06508397339089e-05,5,13.9133680555556,29.9
4.9,11.9003835292024,26.0431232091887,2.97766849238061e-05,-4.75322143900543e-05,5,13.9133680555556,29.9
4.93333333333333,11.9003835292024,26.0431232091887,1.25394624304261e-05,-1.723722249338e-05,5,13.9133680555556,29.9
4.96666666666667,11.9003835292024,26.0431232091887,4.81242030494752e-05,3.55847406190491e-05,5,13.9133680555556,29.9
5,11.9003835292024,26.0431232091887,7.60424654270712e-05,2.7918262377596e-05,5,13.9133680555556,29.9
5.03333333333333,11.9003835292024,26.0431232091887,9.59062366756036e-05,1.98637712485324e-05,5,13.9133680555556,29.9
5.06666666666667,11.9003835292024,26.0431232091887,0.000107816367386464,1.19101307108603e-05,5,13.9133680555556,29.9
5.1,11.9003835292024,26.0431232091887,0.000112286226500206,4.46985911374174e-06,5,13.9133680555556,29.9
5.13333333333333,11.9003835292024,26.0431232091887,0.000110154041155612,-2.13218534459362e-06,5,13.9133680555556,29.9
5.16666666666667,11.9003835292024,26.0431232091887,0.00010249037607584,-7.66366507977204e-06,5,13.9133680555556,29.9
5.2,11.9003835292024,26.0431232091887,9.05065245451881e-05,-1.19838515306519e-05,5,13.9133680555556,29.9
5.23333333333333,11.9003835292024,26.0431232091887,0.000174081110935322,8.35745863901344e-05,5,13.9133680555556,29.9
5.26666666666667,11.9003975516156,26.0439669718156,0.0501377762478169,0.0499636951368815,4,13.9133680555556,29.9
5.3,11.9004394710757,26.0464891776135,0.101116710297021,0.0509789340492042,4,13.9133680555556,29.9
5.33333333333333,11.9005089828576,26.0506691276869,0.149577290841444,0.048460580544423,4,13.9133680555556,29.9
5.36666666666667,11.9006047211969,26.0564189083978,0.195300516087013,0.0457232252455693,4,13.9133680555556,29.9
5.4,11.9007267451105,26.0637319664538,0.243379053323252,0.0480785372362386,4,13.9133680555556,29.9
5.43333333333333,11.9008756324165,26.0726275178942,0.290279486075033,0.046900432751781,4,13.9133680555556,29.9
5.46666666666667,11.9010511095654,26.083067149072,0.336054611470964,0.0457751253959312,4,13.9133680555556,29.9
5.5,11.9012530475655,26.0950142535017,0.380753144321857,0.0446985328508928,4,13.9133680555556,29.9
5.53333333333333,11.9014814583413,26.1084337007633,0.424414716558601,0.0436615722367441,4,13.9133680555556,29.9
5.56666666666667,11.9017364854585,26.1232915609814,0.467071972257266,0.0426572556986646,4,13.9133680555556,29.9
5.6,11.9020183860721,26.1395547118185,0.508737852639533,0.0416658803822673,4,13.9133680555556,29.9
5.63333333333333,11.9023274993353,26.1571900397644,0.549407368480309,0.0406695158407765,4,13.9133680555556,29.9
5.66666666666667,11.9026642198688,26.1761643317941,0.589082532050251,0.0396751635699414,4,13.9133680555556,29.9
5.7,11.903028971625,26.1964445253426,0.62777173284736,0.0386892007971094,4,13.9133680555556,29.9
5.73333333333333,11.9034221764296,26.2179978943777,0.665487691720111,0.0377159588727508,4,13.9133680555556,29.9
5.76666666666667,11.9038442191977,26.2407921915253,0.70224866118561,0.0367609694654989,4,13.9133680555556,29.9
5.8,11.9042954209779,26.2647962972543,0.738108255261857,0.0358595940762473,4,13.9133680555556,29.9
5.83333333333333,11.9047760191329,26.2899812008622,0.773129357307135,0.0350211020452781,4,13.9133680555556,29.9
5.86666666666667,11.9052861314638,26.3163197927167,0.807362399397389,0.0342330420902535,4,13.9133680555556,29.9
5.9,11.9058257235218,26.3437865033835,0.840848502555392,0.0334861031580035,4,13.9133680555556,29.9
5.93333333333333,11.9063945849222,26.3723570339525,0.873621939324769,0.0327734367693763,4,13.9133680555556,29.9
5.96666666666667,11.9069923156816,26.4020081539564,0.905711925008894,0.0320899856841259,4,13.9133680555556,29.9
6,11.9076183207087,26.4327173985543,0.937127945104287,0.0314160200953921,4,13.9133680555556,29.9
6.03333333333333,11.9082717990551,26.4644618542732,0.967838514556367,0.0307105694520802,4,13.9133680555556,29.9
6.06666666666667,11.908951754296,26.4972176031774,0.997820368948066,0.029981854391699,4,13.9133680555556,29.9
