Time,x_ego,y_ego,velocity,acceleration,action,x_ped,y_ped
0,11.8,8.9,5,0,1,15.5,29.9
0.0333333333333333,11.7999981770061,9.06660768884077,4.996422616795,-0.00357738320500367,1,15.5,29.9
0.0666666666666667,11.7999858953146,9.23309265305907,4.99264760243874,-0.00377501435625138,1,15.5,29.9
0.1,11.7999536098033,9.39944929633931,4.98873144784405,-0.00391615459469552,1,15.5,29.9
0.133333333333333,11.7998950750025,9.56567362158627,4.98471462749435,-0.00401682034969841,1,15.5,29.9
0.166666666666667,11.7998074321594,9.73176277738866,4.98062611266957,-0.00408851482477957,1,15.5,29.9
0.2,11.7996904199851,9.89771473337854,4.97648663464897,-0.00413947802059944,1,15.5,29.9
0.233333333333333,11.7995455629388,10.0635280479918,4.97231103594378,-0.00417559870519568,1,15.5,29.9
0.266666666666667,11.7993754572842,10.2292017022759,4.96810995468305,-0.00420108126073071,1,15.5,29.9
0.3,11.7991832101484,10.394734980811,4.96389102513858,-0.00421892954446346,1,15.5,29.9
0.333333333333333,11.7989720361054,10.560127386231,4.95965973143472,-0.00423129370385755,1,15.5,29.9
0.366666666666667,11.7987449852607,10.7253785777475,4.95542001528862,-0.00423971614610608,1,15.5,29.9
0.4,11.7985047660743,10.8904883268745,4.95117471010247,-0.00424530518614663,1,15.5,29.9
0.433333333333333,11.7982536303862,11.0554564855186,4.94692585218274,-0.00424885791972773,1,15.5,29.9
0.466666666666667,11.7979933002696,11.2202829629889,4.94267490442679,-0.00425094775595358,1,15.5,29.9
0.5,11.7977249295446,11.384967709456,4.93842291721412,-0.00425198721267428,1,15.5,29.9
0.533333333333333,11.7974491019592,11.5495107040815,4.93417064407663,-0.00425227313748255,1,15.5,29.9
0.566666666666667,11.7971658708207,11.7139119465378,4.92991862481752,-0.00425201925911267,1,15.5,29.9
0.6,11.7968748415467,11.8781714509859,4.92566724526658,-0.00425137955093735,1,15.5,29.9
0.633333333333333,11.7965752914419,12.0422892418379,4.92141678030191,-0.00425046496467818,1,15.5,29.9
0.666666666666667,11.7962663131555,12.2062653508043,4.91716742487522,-0.00424935542668159,1,15.5,29.9
0.7,11.795946962645,12.3700998148617,4.91291931641623,-0.00424810845899426,1,15.5,29.9
0.733333333333333,11.7956163909693,12.533792674863,4.90867255104731,-0.00424676536892221,1,15.5,29.9
0.766666666666667,11.7952739423247,12.6973439745843,4.90442719538752,-0.0042453556597879,1,15.5,29.9
0.8,11.7949192075466,12.8607537600526,4.90018329523763,-0.00424390014989218,1,15.5,29.9
0.833333333333333,11.7945520309996,13.0240220790453,4.89594088203665,-0.0042424132009824,1,15.5,29.9
0.866666666666667,11.7941724772285,13.1871489806901,4.89169997764986,-0.00424090438678348,1,15.5,29.9
0.9,11.7937807700603,13.3501345151231,4.88746059781472,-0.00423937983514122,1,15.5,29.9
0.933333333333333,11.7933772198689,13.5129787331917,4.88322275445609,-0.00423784335862631,1,15.5,29.9
0.966666666666667,11.7929621541868,13.6756816861999,4.87898645706911,-0.00423629738698139,1,15.5,29.9
1,11.7925358633706,13.8382434257019,4.87475171340299,-0.0042347436661192,1,15.5,29.9
1.03333333333333,11.7920985677828,14.0006640033516,4.87051852970444,-0.00423318369855252,1,15.5,29.9
1.06666666666667,11.791650407357,14.1629434708072,4.86628691076016,-0.00423161894427615,1,15.5,29.9
1.1,11.7911914497232,14.3250818796858,4.86205685991624,-0.0042300508439217,1,15.5,29.9
1.13333333333333,11.790721710152,14.4870792815565,4.85782837917193,-0.0042284807443087,1,15.5,29.9
1.16666666666667,11.7902411757235,14.6489357279571,4.85360146937381,-0.00422690979812668,1,15.5,29.9
1.2,11.7897498271249,14.810651270418,4.84937613048782,-0.0042253388859903,1,15.5,29.9
1.23333333333333,11.7892482241448,14.9722259618727,4.84515232794699,-0.00422380254082722,1,15.5,29.9
1.26666666666667,11.788738897074,15.133659860325,4.84093004649552,-0.00422228145147052,1,15.5,29.9
1.3,11.7882240611321,15.2949530236044,4.83670931262922,-0.00422073386629673,1,15.5,29.9
1.33333333333333,11.7877050201154,15.4561055076378,4.83249014630298,-0.00421916632623986,1,15.5,29.9
1.36666666666667,11.787182308442,15.6171173664997,4.82827255946771,-0.00421758683527251,1,15.5,29.9
1.4,11.7866558750068,15.7779886526689,4.8240565572553,-0.00421600221241292,1,15.5,29.9
1.43333333333333,11.7861252697272,15.9387194173888,4.81984214013191,-0.00421441712338311,1,15.5,29.9
1.46666666666667,11.7855898079914,16.0993097110472,4.81562930591981,-0.00421283421210905,1,15.5,29.9
1.5,11.7850487017,16.2597595835183,4.81141805123954,-0.00421125468026506,1,15.5,29.9
1.53333333333333,11.7845011558314,16.4200690844418,4.80720837235592,-0.00420967888362433,1,15.4777777777778,29.9
1.56666666666667,11.7839464354551,16.5802382634385,4.80300026558828,-0.00420810676763583,1,15.4111111111111,29.9
1.6,11.7833839101353,16.7402671702718,4.79879372746246,-0.00420653812582295,1,15.3,29.9
1.63333333333333,11.7828130818164,16.9001558549678,4.79458875473746,-0.00420497272499709,1,15.1698412698413,29.9
1.66666666666667,11.7822336000443,17.059904367901,4.79038534439282,-0.004203410344636,1,15.0460317460317,29.9
1.7,11.7816452661091,17.2195127598476,4.78618349362765,-0.00420185076516955,1,14.9285714285714,29.9
1.73333333333333,11.7810480263253,17.3789810820011,4.78198319989597,-0.0042002937316834,1,14.8174603174603,29.9
1.76666666666667,11.7804419545619,17.5383093859499,4.77778446097908,-0.00419873891689271,1,14.7126984126984,29.9
1.8,11.7798272250965,17.6974977236139,4.77358727507478,-0.00419718590429596,1,14.6142857142857,29.9
1.83333333333333,11.7792040783921,17.8565461471489,4.76939164087008,-0.00419563420470581,1,14.5222222222222,29.9
1.86666666666667,11.7785727838038,18.0154547088286,4.76519755756383,-0.00419408330624993,1,14.4365079365079,29.9
1.9,11.7779336039826,18.1742234609241,4.76100502481931,-0.0041925327445167,1,14.3571428571429,29.9
1.93333333333333,11.7772867655443,18.3328524555947,4.75681404264806,-0.00419098217125313,1,14.284126984127,29.9
1.96666666666667,11.7766324394279,18.4913417448079,4.75262461124726,-0.00418943140079353,1,14.2174603174603,29.9
2,11.7759707325587,18.649691380296,4.74843673082511,-0.00418788042215201,1,14.1571428571429,29.9
2.03333333333333,11.7753016903924,18.8079014135516,4.74425040144848,-0.00418632937662711,1,14.1031746031746,29.9
2.06666666666667,11.7746253081241,18.9659718958565,4.74006562293788,-0.0041847785106075,1,14.0555555555556,29.9
2.1,11.77394154716,19.1239028783339,4.73588239482033,-0.00418322811754823,1,14.0142857142857,29.9
2.13333333333333,11.7732503530682,19.2816944120103,4.73170071633805,-0.00418167848227657,1,13.9793650793651,29.9
2.16666666666667,11.7725516716305,19.4393465478746,4.72752058650107,-0.00418012983698191,1,13.9507936507936,29.9
2.2,11.7718454606132,19.596859336924,4.723342004167,-0.00417858233406587,1,13.9285714285714,29.9
2.23333333333333,11.7711316976236,19.7542324668735,4.71914316922759,-0.00419883493941597,1,13.9126984126984,29.9
2.26666666666667,11.7704111975602,19.9112636201339,4.70282569249324,-0.0163174767343444,1,13.9031746031746,29.9
2.3,11.7696854052905,20.0676070043931,4.67787924537571,-0.0249464471175349,3,13.9,29.9
2.33333333333333,11.7689552444523,20.2230611294051,4.64947222457731,-0.0284070207983955,3,13.9,29.9
2.36666666666667,11.768221461491,20.3774819681154,4.61588410431978,-0.0335881202575363,3,13.9,29.9
2.4,11.767484852535,20.5307255497366,4.57883875888422,-0.0370453454355584,3,13.9,29.9
2.43333333333333,11.7667461369036,20.682676659575,4.53833772465168,-0.0405010342325376,3,13.9,29.9
2.46666666666667,11.7660060689421,20.8332204956435,4.4944042504054,-0.0439334742462805,3,13.9,29.9
2.5,11.7652653076131,20.9822710050923,4.44874002708073,-0.0456642233246711,3,13.9,29.9
2.53333333333333,11.7645246641933,21.1297131097063,4.39790188224642,-0.0508381448343105,3,13.9,29.9
2.56666666666667,11.763785357019,21.2753456680638,4.34016912291532,-0.0577327593310946,3,13.9,29.9
2.6,11.7630485039116,21.4189962959388,4.27898775747432,-0.0611813654410023,3,13.9,29.9
2.63333333333333,11.7623152528993,21.5604926624513,4.21091498898417,-0.0680727684901523,3,13.9,29.9
2.66666666666667,11.7615870472215,21.6996047262473,4.13593087688774,-0.0749841120964287,3,13.9,29.9
2.7,11.7608653671579,21.8361025112031,4.05405922387423,-0.0818716530135095,3,13.9,29.9
2.73333333333333,11.7601518690935,21.9697274079002,3.96355821053239,-0.0905010133418451,3,13.9,29.9
2.76666666666667,11.7594479796592,22.1002782873792,3.8696184014699,-0.0939398090624821,3,13.9,29.9
2.8,11.7587546096277,22.2276696247824,3.77398551572102,-0.0956328857488873,3,13.9,29.9
2.83333333333333,11.7580725511326,22.3518450128933,3.67666089080089,-0.0973246249201316,3,13.9,29.9
2.86666666666667,11.7574024656101,22.4727767874929,3.57936773114148,-0.0972931596594035,3,13.9,29.9
2.9,11.7567450154498,22.5904369498865,3.48036277959584,-0.0990049515456382,3,13.9,29.9
2.93333333333333,11.7561011399476,22.7047401197997,3.37794639318255,-0.10241638641329,3,13.9,29.9
2.96666666666667,11.7554716223291,22.8156300081115,3.27556368400208,-0.102382709180473,3,13.9,29.9
3,11.7548569409012,22.9231077500383,3.17321511052163,-0.102348573480452,3,13.9,29.9
3.03333333333333,11.754257550337,23.0271744920046,3.07090097264265,-0.10231413787898,3,13.9,29.9
3.06666666666667,11.7536738787488,23.1278313868517,2.96862145442947,-0.102279518213181,3,13.9,29.9
3.1,11.7531063267454,23.2250795904098,2.86637665119531,-0.102244803234153,3,13.9,29.9
3.13333333333333,11.7525552682458,23.3189202590495,2.76416658628293,-0.102210064912382,3,13.9,29.9
3.16666666666667,11.7520210526761,23.4093545479362,2.66199122208118,-0.102175364201749,3,13.9,29.9
3.2,11.7515040080855,23.4963836097894,2.55985046886692,-0.102140753214262,3,13.9,29.9
3.23333333333333,11.7510047530215,23.5799508259878,2.45427810902307,-0.105572359843853,3,13.9,29.9
3.26666666666667,11.750524050817,23.6599708793358,2.34701831497676,-0.107259794046314,3,13.9,29.9
3.3,11.7500625081042,23.7363871638359,2.23804723108572,-0.108971083891039,3,13.9,29.9
3.33333333333333,11.7496207161342,23.8091454762283,2.12766458094111,-0.110382650144607,3,13.8991319444444,29.9
3.36666666666667,11.7491991313724,23.8782161516986,2.01698343475105,-0.110681146190057,3,13.8965277777778,29.9
3.4,11.7487978595674,23.9436330137257,1.90849346383719,-0.108489970913858,3,13.8921875,29.9
3.43333333333333,11.7484169174727,24.0054441425352,1.80064446997421,-0.107848993862979,3,13.8861111111111,29.9
3.46666666666667,11.7480562930828,24.0636997766834,1.69514328319601,-0.105501186778201,3,13.8782986111111,29.9
3.5,11.7477158093828,24.1184764228069,1.59188917684162,-0.103254106354388,3,13.86875,29.9
3.53333333333333,11.7473956003142,24.1697903284697,1.48736783955099,-0.104521337290639,3,13.8574652777778,29.9
3.56666666666667,11.7470957868814,24.217656124605,1.38498976833446,-0.102378071216527,3,13.8444444444444,29.9
3.6,11.7468161564272,24.262144606556,1.284720375751,-0.100269392583461,3,13.8296875,29.9
3.63333333333333,11.7465564814536,24.303325233919,1.18650284387923,-0.0982175318717668,3,13.8131944444444,29.9
3.66666666666667,11.7463166855599,24.341236739266,1.08856606466347,-0.0979367792157566,3,13.7949652777778,29.9
3.7,11.7460968366706,24.3758888304878,0.99095157561361,-0.0976144890498649,3,13.775,29.9
3.73333333333333,11.7458969724998,24.4072937590156,0.893750769482,-0.0972008061316096,3,13.7532986111111,29.9
3.76666666666667,11.7457169367702,24.4354955768809,0.79875351365598,-0.09499725582602,3,13.7298611111111,29.9
3.8,11.7455565643883,24.4605375842372,0.704140078058954,-0.0946134355970257,3,13.7046875,29.9
3.83333333333333,11.7454156972079,24.4824596789399,0.611547522369415,-0.0925925556895394,3,13.6777777777778,29.9
3.86666666666667,11.7452940094146,24.5013292843912,0.520997813225228,-0.0905497091441867,3,13.6491319444444,29.9
3.9,11.7451911555131,24.5172153637839,0.432538090767249,-0.0884597224579793,3,13.61875,29.9
3.93333333333333,11.7451067750045,24.5301877246591,0.346162753766279,-0.0863753370009698,3,13.5866319444444,29.9
3.96666666666667,11.7450403426063,24.5403433793899,0.263519768785821,-0.0826429849804578,3,13.5527777777778,29.9
4,11.7449913396628,24.5477766707175,0.182812780021837,-0.080706988763984,3,13.5171875,29.9
4.03333333333333,11.7449594077311,24.5525526190008,0.10410781683808,-0.0787049631837575,3,13.4798611111111,29.9
4.06666666666667,11.744944159355,24.5547403315355,0.0275677313497484,-0.0765400854883312,3,13.4407986111111,29.9
4.1,11.7449438534101,24.5546447555434,0.0130434632990239,-0.0145242680507244,5,13.4,29.9
4.13333333333333,11.7449473454982,24.5542131956941,0.00195902361311122,-0.0110844396859127,5,13.3574652777778,29.9
4.16666666666667,11.7449473454982,24.5542131956941,0.00259492615683895,0.000635902543727725,5,13.3131944444444,29.9
4.2,11.7449473454982,24.5542131956941,0.00345101003764592,0.000856083880806976,5,13.2671875,29.9
4.23333333333333,11.7449473454982,24.5542131956941,0.0044495659598287,0.000998555922182781,5,13.2194444444444,29.9
4.26666666666667,11.7449473454982,24.5542131956941,0.00548921777497416,0.00103965181514546,5,13.1699652777778,29.9
4.3,11.7449473454982,24.5542131956941,0.00646010959619193,0.000970891821217769,5,13.11875,29.9
4.33333333333333,11.7449473454982,24.5542131956941,0.00725754226544139,0.000797432669249457,5,13.0657986111111,29.9
4.36666666666667,11.7449473454982,24.5542131956941,0.00779311939295336,0.000535577127511972,5,13.0111111111111,29.9
4.4,11.7449473454982,24.5542131956941,0.00800282209866124,0.000209702705707875,5,12.9546875,29.9
4.43333333333333,11.7449473454982,24.5542131956941,0.00785177556358359,-0.00015104653507764,5,12.8965277777778,29.9
4.46666666666667,11.7449473454982,24.5542131956941,0.00733577633606679,-0.000515999227516809,5,12.8366319444444,29.9
4.5,11.7449473454982,24.5542131956941,0.00647990048968293,-0.000855875846383857,5,12.775,29.9
4.53333333333333,11.7449473454982,24.5542131956941,0.00533469937596755,-0.00114520111371538,5,12.7116319444444,29.9
4.56666666666667,11.7449473454982,24.5542131956941,0.00397060833841473,-0.00136409103755282,5,12.6465277777778,29.9
4.6,11.7449473454982,24.5542131956941,0.00247124634783189,-0.00149936199058284,5,12.5796875,29.9
4.63333333333333,11.7449473454982,24.5542131956941,0.000926277542497728,-0.00154496880533416,5,12.5111111111111,29.9
4.66666666666667,11.7449473454982,24.5542131956941,0.000575551151092585,-0.000350726391405143,5,12.4407986111111,29.9
4.7,11.7449473454982,24.5542131956941,0.00195267698070915,0.00137712582961657,5,12.36875,29.9
4.73333333333333,11.7449473454982,24.5542131956941,0.00313589375619186,0.00118321677548271,5,12.2949652777778,29.9
4.76666666666667,11.7449473454982,24.5542131956941,0.00407216347355257,0.000936269717360709,5,12.2194444444444,29.9
4.8,11.7449473454982,24.5542131956941,0.00472693520516073,0.000654771731608167,5,12.1421875,29.9
4.83333333333333,11.7449473454982,24.5542131956941,0.00508496487587152,0.000358029670710784,5,12.0631944444444,29.9
4.86666666666667,11.7449473454982,24.5542131956941,0.00514973872506713,6.47738491956155e-05,5,11.9824652777778,29.9
4.9,11.7449473454982,24.5542131956941,0.00494169056256101,-0.000208048162506128,5,11.9,29.9
4.93333333333333,11.7449473454982,24.5542131956941,0.00449546524575437,-0.000446225316806633,5,11.8157986111111,29.9
4.96666666666667,11.7449473454982,24.5542131956941,0.0038565172266105,-0.000638948019143877,5,11.7298611111111,29.9
5,11.7449473454982,24.5542131956941,0.00307734456765162,-0.000779172658958872,5,11.6421875,29.9
5.03333333333333,11.7449473454982,24.5542131956941,0.00221364811086617,-0.000863696456785449,5,11.5527777777778,29.9
5.06666666666667,11.7449473454982,24.5542131956941,0.0013206762703418,-0.000892971840524373,5,11.4616319444444,29.9
5.1,11.7449473454982,24.5542131956941,0.000449972710778002,-0.000870703559563799,5,11.36875,29.9
5.13333333333333,11.7449473454982,24.5542131956941,0.000353308208626277,-9.66645021517249e-05,5,11.2741319444444,29.9
5.16666666666667,11.7449473454982,24.5542131956941,0.00105241013483273,0.000699101926206451,5,11.1777777777778,29.9
5.2,11.7449473454982,24.5542131956941,0.00162025627356235,0.000567846138729622,5,11.0796875,29.9
5.23333333333333,11.7449473454982,24.5542131956941,0.0020400055191539,0.000419749245591552,5,10.9798611111111,29.9
5.26666666666667,11.7449473454982,24.5542131956941,0.00230493111462078,0.000264925595466873,5,10.8782986111111,29.9
5.3,11.7449473454982,24.5542131956941,0.00241770708758193,0.000112775972961154,5,10.775,29.9
5.33333333333333,11.7449473454982,24.5542131956941,0.00238921480590968,-2.84922816722534e-05,5,10.6699652777778,29.9
5.36666666666667,11.7449473454982,24.5542131956941,0.00223699848306741,-0.000152216322842265,5,10.5631944444444,29.9
5.4,11.7449473454982,24.5542131956941,0.00198350466998346,-0.000253493813083953,5,10.4546875,29.9
5.43333333333333,11.7449473454982,24.5542131956941,0.00165423765307298,-0.000329267016910477,5,10.3444444444444,29.9
5.46666666666667,11.7449473454982,24.5542131956941,0.00127595166415886,-0.000378285988914123,5,10.2324652777778,29.9
5.5,11.7449473454982,24.5542131956941,0.000874983638264289,-0.000400968025894569,5,10.11875,29.9
5.53333333333333,11.7449473454982,24.5542131956941,0.000475808827044506,-0.000399174811219783,5,10.0032986111111,29.9
5.56666666666667,11.7449473454982,24.5542131956941,9.98777992360861e-05,-0.00037593102780842,5,9.88611111111111,29.9
5.6,11.7449473454982,24.5542131956941,0.000235230966179535,0.000135353166943448,5,9.7671875,29.9
5.63333333333333,11.7449473454982,24.5542131956941,0.00051633197495084,0.000281101008771305,5,9.64652777777778,29.9
5.66666666666667,11.7449473454982,24.5542131956941,0.000734837122387075,0.000218505147436235,5,9.52413194444444,29.9
5.7,11.7449473454982,24.5542131956941,0.000886671243462866,0.000151834121075791,5,9.4,29.9
5.73333333333333,11.7449473454982,24.5542131956941,0.000971940090087525,8.52688466246584e-05,5,9.27413194444444,29.9
5.76666666666667,11.7449473454982,24.5542131956941,0.000994401390428621,2.24613003410961e-05,5,9.14652777777778,29.9
5.8,11.7449473454982,24.5542131956941,0.000960794744690199,-3.36066457384217e-05,5,9.0171875,29.9
5.83333333333333,11.7449473454982,24.5542131956941,0.000880087201101887,-8.07075435883116e-05,5,8.88611111111111,29.9
5.86666666666667,11.7449473454982,24.5542131956941,0.000762688908499889,-0.000117398292601998,5,8.75329861111111,29.9
5.9,11.7449473454982,24.5542131956941,0.000619687882529872,-0.000143001025970017,5,8.61875,29.9
5.93333333333333,11.7449473454982,24.5542131956941,0.000462145367488991,-0.00015754251504088,5,8.48246527777778,29.9
5.96666666666667,11.7449473454982,24.5542131956941,0.000300484276121942,-0.00016166109136705,5,8.34444444444444,29.9
6,11.7449473454982,24.5542131956941,4.53810507020534e-05,-0.000255103225419888,5,8.2046875,29.9
6.03333333333333,11.7449473454982,24.5542131956941,0.000314084129472237,0.000268703078770184,5,8.06319444444445,29.9
6.06666666666667,11.7449473454982,24.5542131956941,0.000650822571241828,0.000336738441769591,5,7.91996527777778,29.9
6.1,11.7449473454982,24.5542131956941,0.00102388073270618,0.000373058161464347,5,7.775,29.9
6.13333333333333,11.744942652434,24.5550333059775,0.0485762868744341,0.0475524061417279,4,7.62829861111111,29.9
6.16666666666667,11.7449285176987,24.5575032453782,0.0995646744556031,0.050988387581169,4,7.47986111111111,29.9
6.2,11.7449047179031,24.5616608044344,0.149788929940941,0.0502242554853379,4,7.3296875,29.9
6.23333333333333,11.7448714059142,24.5674761694416,0.199008194736194,0.0492192647952527,4,7.17777777777778,29.9
6.26666666666667,11.7448287576852,24.5749129735937,0.247063792058665,0.0480555973224709,4,7.02413194444444,29.9
6.3,11.7447769507152,24.5839314763977,0.293923263576478,0.0468594715178139,4,6.86875,29.9
6.33333333333333,11.7447161372037,24.5944928286979,0.339646242706103,0.0457229791296242,4,6.71163194444445,29.9
6.36666666666667,11.7446464366285,24.606560124738,0.38428524471525,0.0446390020091473,4,6.55277777777778,29.9
6.4,11.7445679376325,24.6200980277327,0.427882805985417,0.0435975612701666,4,6.3921875,29.9
6.43333333333333,11.7444807007306,24.6350724687065,0.47047333604504,0.0425905300596234,4,6.22986111111111,29.9
