Time,x_ego,y_ego,velocity,acceleration,action,x_ped,y_ped
0,11.8,8.9,5,0,1,15.5,29.9
0.0333333333333333,11.8000109377618,9.06660768880144,4.99642270084829,-0.00357729915171401,1,15.3694444444444,29.9
0.0666666666666667,11.8000811066625,9.23309265128725,4.99264861118649,-0.00377408966179438,1,15.2444444444444,29.9
0.1,11.800252234213,9.39944927967687,4.9887351764652,-0.00391343472129169,1,15.125,29.9
0.133333333333333,11.800548361974,9.56567354479236,4.98472304245808,-0.00401213400712486,1,15.0111111111111,29.9
0.166666666666667,11.8009789031543,9.73176253930302,4.98064050927422,-0.00408253318385121,1,14.9027777777778,29.9
0.2,11.8015423954108,9.89771416010785,4.9765072426334,-0.00413326664081914,1,14.8,29.9
0.233333333333333,11.8022301641236,10.0635268893395,4.97233710391534,-0.0041701387180666,1,14.7027777777778,29.9
0.266666666666667,11.8030294271951,10.2291996416971,4.96814010753314,-0.00419699638219573,1,14.6111111111111,29.9
0.3,11.8039256610352,10.3947316547422,4.96392366839548,-0.00421643913766712,1,14.525,29.9
0.333333333333333,11.8049036451437,10.5601224083809,4.95969316721441,-0.00423050118106172,1,14.4444444444444,29.9
0.366666666666667,11.8059470749124,10.7253715668534,4.95545272987252,-0.00424043734189095,1,14.3694444444444,29.9
0.4,11.8070405391003,10.8904789290048,4.95120532865459,-0.00424740121793388,1,14.3,29.9
0.433333333333333,11.8081659112039,11.0554444044609,4.94695282792135,-0.00425250073323458,1,14.2361111111111,29.9
0.466666666666667,11.809301702988,11.2202679941815,4.94269697163072,-0.00425585629063008,1,14.1777777777778,29.9
0.5,11.810427963784,11.3849497546345,4.93843965234775,-0.00425731928297246,1,14.125,29.9
0.533333333333333,11.8115302881535,11.5494897613663,4.93418243584281,-0.00425721650494548,1,14.0777777777778,29.9
0.566666666666667,11.8126007816219,11.7138880855766,4.92992641910345,-0.00425601673935905,1,14.0361111111111,29.9
0.6,11.8136391186201,11.8781447749937,4.92567219052606,-0.00425422857738944,1,14,29.9
0.633333333333333,11.814650943531,12.0422598518708,4.92141989544226,-0.0042522950837931,1,13.9694444444444,29.9
0.666666666666667,11.8156455945236,12.2062333195761,4.91716947738657,-0.00425041805569037,1,13.9444444444444,29.9
0.7,11.8166340709578,12.3700651713005,4.91292083642174,-0.00424864096483013,1,13.925,29.9
0.733333333333333,11.8176274006404,12.5337553981543,4.90867389871773,-0.00424693770401685,1,13.9111111111111,29.9
0.766666666666667,11.8186354695837,12.6973039953162,4.90442862522171,-0.00424527349602055,1,13.9027777777778,29.9
0.8,11.8196656976223,12.860710969178,4.90018493856665,-0.0042436866550517,1,13.9,29.9
0.833333333333333,11.820718880548,13.0239763604839,4.89594255536811,-0.00424238319854098,1,13.9,29.9
0.866666666666667,11.8217822765077,13.1871002856814,4.89170105779509,-0.0042414975730285,1,13.9,29.9
0.9,11.8228270674509,13.3500829578491,4.88746041341749,-0.00424064437759242,1,13.9,29.9
0.933333333333333,11.8238119114853,13.5129246701362,4.88322154778668,-0.00423886563081055,1,13.9,29.9
0.966666666666667,11.824692368583,13.6756257338682,4.87898618106578,-0.00423536672090208,1,13.9,29.9
1,11.8254334604229,13.8381863872936,4.87475554250518,-0.00423063856060057,1,13.9,29.9
1.03333333333333,11.8260181548253,14.0006067313372,4.87052923606923,-0.00422630643595134,1,13.9,29.9
1.06666666666667,11.8264477967745,14.1628867307037,4.86630540505956,-0.00422383100967227,1,13.9,29.9
1.1,11.8267394880072,14.3250262526634,4.86208176448949,-0.00422364057006153,1,13.9,29.9
1.13333333333333,11.8269206779831,14.4870251286479,4.85785669757249,-0.00422506691700431,1,13.9,29.9
1.16666666666667,11.8270241051929,14.6488832060372,4.8536296733328,-0.00422702423969312,1,13.9,29.9
1.2,11.827083206753,14.8105713144698,4.84765740326311,-0.0059722700696847,1,13.9,29.9
1.23333333333333,11.8271265275177,14.9719738824449,4.83649730527618,-0.0111600979869317,1,13.9,29.9
1.26666666666667,11.8271744162287,15.1329176490902,4.82012975759686,-0.0163675476793212,1,13.9,29.9
1.3,11.8272393918912,15.2932294248589,4.7985785358554,-0.021551221741464,3,13.9,29.9
1.33333333333333,11.8273273950564,15.4527942130658,4.77531139945234,-0.0232671364030548,3,13.9,29.9
1.36666666666667,11.8274389218742,15.6115548312224,4.7503294160524,-0.0249819833999458,3,13.9,29.9
1.4,11.8275706535825,15.7694828318161,4.72535542527792,-0.0249739907744706,3,13.9,29.9
1.43333333333333,11.8277185726598,15.9265784876394,4.70038976546177,-0.0249656598161589,3,13.9,29.9
1.46666666666667,11.8278786268661,16.0828420824758,4.67543267639005,-0.0249570890717186,3,13.9,29.9
1.5,11.8280464354441,16.2382448431268,4.64874045461149,-0.0266922217785561,3,13.9,29.9
1.53333333333333,11.8282157055412,16.3927293086524,4.62033531587611,-0.0284051387353808,3,13.9,29.9
1.56666666666667,11.8283796777979,16.546267098844,4.59193977611138,-0.028395539764726,3,13.9,29.9
1.6,11.828534154559,16.6987433683772,4.556643743598,-0.035296032513382,3,13.9,29.9
1.63333333333333,11.8286789309689,16.8499855237405,4.5178925661962,-0.0387511774018039,3,13.9,29.9
1.66666666666667,11.8288190007152,16.999878405272,4.47568725563544,-0.0422053105607629,3,13.9,29.9
1.7,11.8289616024428,17.1483068874238,4.4300289486397,-0.0456583069957368,3,13.9,29.9
1.73333333333333,11.8291161125111,17.2952136484123,4.38438484170631,-0.0456441069333868,3,13.9,29.9
1.76666666666667,11.8292962185138,17.440570454655,4.33703360106787,-0.0473512406384398,3,13.9,29.9
1.8,11.8295170404583,17.5842913243023,4.28623229383118,-0.050801307236692,3,13.9,29.9
1.83333333333333,11.8297950396222,17.7262902977194,4.23372615749537,-0.0525061363358095,3,13.8991319444444,29.9
1.86666666666667,11.8301457635008,17.8665392050371,4.18123841754051,-0.0524877399548567,3,13.8965277777778,29.9
1.9,11.8305781680267,18.0049808299303,4.12530345595178,-0.055934961588731,3,13.8921875,29.9
1.93333333333333,11.8310926151601,18.1415292803914,4.06766553311122,-0.057637922840561,3,13.8861111111111,29.9
1.96666666666667,11.8316825711188,18.2761277615502,4.00832465121928,-0.0593408818919459,3,13.8782986111111,29.9
2,11.8323368546055,18.4087191473574,3.94725903937619,-0.0610656118430812,3,13.86875,29.9
2.03333333333333,11.8330417707448,18.5392463453986,3.88449072338874,-0.0627683159874546,3,13.8574652777778,29.9
2.06666666666667,11.8337829823733,18.6676813621566,3.8217422917031,-0.062748431685641,3,13.8444444444444,29.9
2.1,11.8345468233883,18.7939958664024,3.7572702729652,-0.0644720187378991,3,13.8296875,29.9
2.13333333333333,11.8353211849791,18.9181328450049,3.69109717913557,-0.066173093829633,3,13.8131944444444,29.9
2.16666666666667,11.8360962755865,19.0400643681307,3.62494591029186,-0.0661512688437114,3,13.7949652777778,29.9
2.2,11.836864817704,19.1597625147945,3.55709488963354,-0.0678510206583112,3,13.775,29.9
2.23333333333333,11.8376220958806,19.2771993689357,3.48926686292292,-0.0678280267106248,3,13.7532986111111,29.9
2.26666666666667,11.8383660233244,19.3924044199486,3.42318431130272,-0.0660825516202017,3,13.7298611111111,29.9
2.3,11.8390966449171,19.5054071485633,3.35712509513872,-0.0660592161639979,3,13.7046875,29.9
2.33333333333333,11.8398156105124,19.6162083221102,3.29108921553052,-0.066035879608199,3,13.6777777777778,29.9
2.36666666666667,11.8405256551259,19.7247799966681,3.22335449885954,-0.0677347166709787,3,13.6491319444444,29.9
2.4,11.8412302911926,19.8311229280814,3.15736535024099,-0.0659891486185527,3,13.61875,29.9
2.43333333333333,11.8419329929588,19.9352088027364,3.08793336871771,-0.0694319815232802,3,13.5866319444444,29.9
2.46666666666667,11.8426362772431,20.0368941386827,3.01333672663377,-0.074596642083935,3,13.5527777777778,29.9
2.5,11.8433420638546,20.1360932441256,2.93876433367052,-0.0745723929632534,3,13.5171875,29.9
2.53333333333333,11.8440514047109,20.2327782176746,2.86249435878445,-0.0762699748860673,3,13.4798611111111,29.9
2.56666666666667,11.8447638111806,20.326863409926,2.78278324707961,-0.0797111117048424,3,13.4407986111111,29.9
2.6,11.8454774232633,20.4182344948834,2.6996533954902,-0.0831298515894145,3,13.4,29.9
2.63333333333333,11.8461893221239,20.5067771770157,2.61308371487681,-0.0865696806133882,3,13.3574652777778,29.9
2.66666666666667,11.8468959605413,20.5924055321584,2.52479714385696,-0.0882865710198439,3,13.3131944444444,29.9
2.7,11.8475936730851,20.6750914329834,2.43653829102841,-0.0882588528285568,3,13.2671875,29.9
2.73333333333333,11.8482787404936,20.7548071350336,2.34658545029955,-0.0899528407288592,3,13.2194444444444,29.9
2.76666666666667,11.8489475726502,20.8314962060208,2.25493912026006,-0.091646330039489,3,13.1699652777778,29.9
2.8,11.8495974284917,20.9051608814132,2.16518998157165,-0.0897491386884135,3,13.11875,29.9
2.83333333333333,11.8502264352075,20.9758473477052,2.07641988024494,-0.0887701013267015,3,13.0657986111111,29.9
2.86666666666667,11.8508331705047,21.0435749689122,1.98773749795884,-0.0886823822861083,3,13.0111111111111,29.9
2.9,11.8514168718358,21.1083811414351,1.90114447214806,-0.0865930258107719,3,12.9546875,29.9
2.93333333333333,11.8519774299881,21.1703359561734,1.81664318472733,-0.0845012874207356,3,12.8965277777778,29.9
2.96666666666667,11.8525150660158,21.2295080805036,1.73415711160952,-0.0824860731178114,3,12.8366319444444,29.9
3,11.8530300165576,21.2859334385469,1.65181213710966,-0.0823449744998563,3,12.775,29.9
3.03333333333333,11.8535224338562,21.3396155946143,1.56955176726283,-0.0822603698468345,3,12.7116319444444,29.9
3.06666666666667,11.8539923095895,21.3905276491101,1.48559152113217,-0.0839602461306592,3,12.6465277777778,29.9
3.1,11.854439606157,21.438641127275,1.40162566819944,-0.0839658529327263,3,12.5796875,29.9
3.13333333333333,11.8548646160644,21.4839841579147,1.31935794542233,-0.0822677227771127,3,12.5111111111111,29.9
3.16666666666667,11.855267355445,21.5265552402122,1.23529703312697,-0.0840609122953624,3,12.4407986111111,29.9
3.2,11.8556477551183,21.5663517809753,1.15287731440892,-0.0824197187180493,3,12.36875,29.9
3.23333333333333,11.8560060681295,21.6034282609545,1.07209194520818,-0.0807853692007399,3,12.2949652777778,29.9
3.26666666666667,11.8563420810215,21.6377826789695,0.989567359777491,-0.082524585430686,3,12.2194444444444,29.9
3.3,11.8566553342283,21.6693872027237,0.90710976902301,-0.0824575907544812,3,12.1421875,29.9
3.33333333333333,11.8569459564862,21.6983034628373,0.828263855923883,-0.078845913099127,3,12.0631944444444,29.9
3.36666666666667,11.8572142491881,21.7246216794377,0.751203366764063,-0.0770604891598194,3,11.9824652777778,29.9
3.4,11.8574600507087,21.7483706350978,0.67408926264488,-0.0771141041191833,3,11.9,29.9
3.43333333333333,11.8576831745677,21.7695766648904,0.598623116789843,-0.0754661458550366,3,11.8157986111111,29.9
3.46666666666667,11.8578834397377,21.7882665608943,0.523123307800943,-0.0754998089889004,3,11.7298611111111,29.9
3.5,11.8580606904618,21.8044686578368,0.449353543391278,-0.0737697644096649,3,11.6421875,29.9
3.53333333333333,11.8582150139362,21.8182408901694,0.377319952631741,-0.0720335907595364,3,11.5527777777778,29.9
3.56666666666667,11.8583465245402,21.8296403501143,0.30696977055382,-0.0703501820779215,3,11.4616319444444,29.9
3.6,11.8584553617668,21.8387221093021,0.238241180642953,-0.0687285899108674,3,11.36875,29.9
3.63333333333333,11.8585416960744,21.8455393934546,0.171098174742046,-0.0671430059009061,3,11.2741319444444,29.9
3.66666666666667,11.8586053167982,21.8500886927545,0.102182656951233,-0.0689155177908136,3,11.1777777777778,29.9
3.7,11.858646095702,21.8523711321846,0.0351024000064198,-0.067080256944813,3,11.0796875,29.9
3.73333333333333,11.8586661359992,21.8526760665363,0.00075867236260598,-0.0343437276438139,3,10.9798611111111,29.9
3.76666666666667,11.8586767296834,21.852499026546,0.00534040111910488,0.0045817287564989,5,10.8782986111111,29.9
3.8,11.858681524309,21.8523220305249,0.00102897018769291,-0.00431143093141197,5,10.775,29.9
3.83333333333333,11.858681524309,21.8523220305249,0.0017859662481484,0.000756996060455491,5,10.6699652777778,29.9
3.86666666666667,11.858681524309,21.8523220305249,0.00271659045883041,0.000930624210682003,5,10.5631944444444,29.9
3.9,11.858681524309,21.8523220305249,0.00372849269289773,0.00101190223406732,5,10.4546875,29.9
3.93333333333333,11.858681524309,21.8523220305249,0.00471944740444035,0.000990954711542619,5,10.3444444444444,29.9
3.96666666666667,11.858681524309,21.8523220305249,0.00558970789670139,0.000870260492261041,5,10.2324652777778,29.9
4,11.858681524309,21.8523220305249,0.00625232370616862,0.000662615809467227,5,10.11875,29.9
4.03333333333333,11.858681524309,21.8523220305249,0.0066408556354673,0.00038853192929868,5,10.0032986111111,29.9
4.06666666666667,11.858681524309,21.8523220305249,0.00671422339659027,7.33677611229723e-05,5,9.88611111111111,29.9
4.1,11.858681524309,21.8523220305249,0.00645869245545919,-0.000255530941131074,5,9.7671875,29.9
4.13333333333333,11.858681524309,21.8523220305249,0.00588723407916328,-0.000571458376295911,5,9.64652777777778,29.9
4.16666666666667,11.858681524309,21.8523220305249,0.00503666611260887,-0.000850567966554414,5,9.52413194444444,29.9
4.2,11.858681524309,21.8523220305249,0.00396309746887754,-0.00107356864373133,5,9.4,29.9
4.23333333333333,11.858681524309,21.8523220305249,0.00273625739918703,-0.00122684006969052,5,9.27413194444444,29.9
4.26666666666667,11.858681524309,21.8523220305249,0.00143329603315506,-0.00130296136603197,5,9.14652777777778,29.9
4.3,11.858681524309,21.8523220305249,0.000132603206076861,-0.0013006928270782,5,9.0171875,29.9
4.33333333333333,11.858681524309,21.8523220305249,0.00109188202438266,0.000959278818305801,5,8.88611111111111,29.9
4.36666666666667,11.858681524309,21.8523220305249,0.00217549777396657,0.00108361574958391,5,8.75329861111111,29.9
4.4,11.858681524309,21.8523220305249,0.00306656080850179,0.000891063034535219,5,8.61875,29.9
4.43333333333333,11.858681524309,21.8523220305249,0.00372879826655734,0.000662237458055558,5,8.48246527777778,29.9
4.46666666666667,11.858681524309,21.8523220305249,0.00404387063066088,0.000315072364103534,5,8.34444444444444,29.9
4.5,11.8586825625047,21.8524588341727,0.00499261036611225,0.000948739735451369,5,8.2046875,29.9
4.53333333333333,11.8586839232895,21.8526381713955,0.0085564907382164,0.00356388037210415,5,8.06319444444444,29.9
4.56666666666667,11.858688657023,21.8532619458289,0.0298337571684486,0.0212772664302322,4,7.91996527777778,29.9
4.6,11.8587021948026,21.8550454300105,0.0773063475704311,0.0474725904019825,4,7.775,29.9
4.63333333333333,11.8587281661734,21.8584646155411,0.127767241008743,0.0504608934383116,4,7.62829861111111,29.9
4.66666666666667,11.8587668736296,21.8635527028036,0.17736780221357,0.0496005612048275,4,7.47986111111111,29.9
4.7,11.8588181683028,21.8702767465904,0.225896485254356,0.0485286830407861,4,7.3296875,29.9
4.73333333333333,11.8588819268413,21.8785985576324,0.273243545525843,0.0473470602714866,4,7.17777777777778,29.9
4.76666666666667,11.8589580951082,21.8884789592757,0.319442288431129,0.0461987429052857,4,7.02413194444444,29.9
4.8,11.8590467168178,21.8998805751797,0.364545109001613,0.0451028205704847,4,6.86875,29.9
4.83333333333333,11.8591479354263,21.9127676685481,0.4085941279095,0.044049018907887,4,6.71163194444444,29.9
4.86666666666667,11.859261990046,21.9271058252861,0.451624336867132,0.0430302089576316,4,6.55277777777778,29.9
4.9,11.8593892065018,21.9428616649656,0.493658955200012,0.0420346183328804,4,6.3921875,29.9
4.93333333333333,11.859529979848,21.9600021023225,0.534695317248788,0.041036362048776,4,6.22986111111111,29.9
4.96666666666667,11.8596847541736,21.9784939037908,0.574733085674057,0.0400377684252692,4,6.06579861111111,29.9
5,11.8598540030152,21.9983039100837,0.613779398511421,0.0390463128373637,4,5.9,29.9
5.03333333333333,11.8600382060758,22.019399244306,0.651846434558936,0.0380670360475149,4,5.9,29.9
5.06666666666667,11.8602378230692,22.0417474617847,0.688950106009097,0.0371036714501605,4,5.9,29.9
5.1,11.8604532680195,22.0653168952958,0.725128910341474,0.0361788043323771,4,5.9,29.9
5.13333333333333,11.8606848897502,22.0900777357953,0.760448397807613,0.035319487466139,4,5.9,29.9
5.16666666666667,11.8609329478178,22.1160022217657,0.794963340160703,0.0345149423530907,4,5.9,29.9
5.2,11.8611975878294,22.1430642527782,0.828717886103503,0.0337545459427999,4,5.9,29.9
5.23333333333333,11.861478822565,22.1712390884587,0.861748385238761,0.0330304991352576,4,5.9,29.9
5.26666666666667,11.861776519993,22.2005031234042,0.894085478479968,0.0323370932412067,4,5.9,29.9
5.3,11.8620903987498,22.2308337000398,0.925751801288581,0.0316663228086135,4,5.9,29.9
5.33333333333333,11.8624200260446,22.2622082579725,0.956725218891073,0.0309734176024922,4,5.9,29.9
5.36666666666667,11.8627648207525,22.2946031805956,0.986975718568816,0.0302504996777427,4,5.9,29.9
5.4,11.8631240755154,22.3279941383852,1.01648961889276,0.0295139003239435,4,5.9,29.9
5.43333333333333,11.863496986048,22.3623565057117,1.04526250758438,0.0287728886916163,4,5.9,29.9
5.46666666666667,11.8638826847997,22.3976656344527,1.07329808398914,0.0280355764047597,4,5.9,29.9
5.5,11.8642802784296,22.4338971084119,1.10060666462312,0.0273085806339866,4,5.9,29.9
5.53333333333333,11.8646888868538,22.4710269274893,1.12720297463367,0.026596310010548,4,5.9,29.9
5.56666666666667,11.865107682197,22.5090316680841,1.15310929836372,0.0259063237300534,4,5.9,29.9
5.6,11.8655359287263,22.5478890054432,1.17836877854254,0.0252594801788211,4,5.9,29.9
5.63333333333333,11.8659730207333,22.5875784708243,1.20306823819831,0.0246994596557633,4,5.9,29.9
5.66666666666667,11.8664185457724,22.6280858910015,1.22752517002705,0.0244569318287444,4,5.9,29.9
5.7,11.8668723789081,22.6694121898086,1.25232014475294,0.024794974725884,4,5.9,29.9
5.73333333333333,11.8673347650559,22.7115813890668,1.27825116794278,0.0259310231898426,4,5.9,29.9
5.76666666666667,11.8678063868667,22.7546474777291,1.30632292989139,0.0280717619486071,4,5.9,29.9
5.8,11.8682884293341,22.7987013637046,1.33773348974021,0.031410559848821,4,5.9,29.9
5.83333333333333,11.8687826246087,22.8438758491196,1.37377398346565,0.0360404937254419,4,5.9,29.9
5.86666666666667,11.8692912440459,22.8903447676003,1.41556139571612,0.0417874122504711,4,5.9,29.9
5.9,11.8698170110147,22.9383133756608,1.46386365421709,0.0483022585009683,4,5.9,29.9
5.93333333333333,11.870362999962,22.9880076962662,1.51917244163651,0.0553087874194169,4,5.9,29.9
5.96666666666667,11.870932549252,23.0396660365463,1.58173569421995,0.0625632525834476,4,5.9,29.9
6,11.8715291716485,23.0935308830408,1.65154649526529,0.0698108010453331,4,5.9,29.9
6.03333333333333,11.8721564509085,23.1498399237201,1.72833984630579,0.0767933510405043,4,5.9,29.9
6.06666666666667,11.8728179492324,23.2088189310432,1.81167017083635,0.0833303245305648,4,5.9,29.9
6.1,11.8735171246192,23.2706762568027,1.90094696544606,0.0892767946097059,4,5.9,29.9
6.13333333333333,11.8742572597701,23.3355988736034,1.99548524098493,0.0945382755388706,4,5.9,29.9
6.16666666666667,11.8750414051384,23.4037499234688,2.09454675945968,0.0990615184747443,4,5.9,29.9
6.2,11.8758723381812,23.4752676306875,2.19738098373531,0.102834224275639,4,5.9,29.9
6.23333333333333,11.8767525408908,23.5502654495709,2.30325586786048,0.105874884125163,4,5.9,29.9
6.26666666666667,11.8776841945469,23.6288330554082,2.41147990171096,0.108224033850482,4,5.9,29.9
6.3,11.8786691965069,23.7110385135513,2.52147165870624,0.109991756995282,4,5.9,29.9
6.33333333333333,11.8797092128328,23.7969339083144,2.63284470957438,0.111373050868142,4,5.9,29.9
6.36666666666667,11.8808056745437,23.8865601680382,2.74530273904359,0.112458029469208,4,5.9,29.9
6.4,11.8819598045746,23.9799492275948,2.85859766806958,0.113294929025987,4,5.9,29.9
6.43333333333333,11.8831726971788,24.0771251256348,2.97249935410269,0.113901686033115,4,5.9,29.9
6.46666666666667,11.8844453925885,24.1781042700105,3.08677957787959,0.114280223776893,4,5.9,29.9
6.5,11.8857789395301,24.2828954578614,3.20120671644417,0.114427138564586,4,5.9,29.9
6.53333333333333,11.8871744274434,24.3914987478228,3.31547358724623,0.114266870802063,4,5.9,29.9
6.56666666666667,11.888632980236,24.5039029020153,3.42923153367232,0.113757946426085,4,5.9,29.9
