Time,x_ego,y_ego,velocity,acceleration,action,x_ped,y_ped
0,11.8,8.9,7,0,1,15.5,29.9
0.0333333333333333,11.8,9.13327037939431,6.99615577953002,-0.00384422046998356,1,15.4502170138889,29.9
0.0666666666666667,11.8,9.36640659881126,6.99196947109348,-0.00418630843653833,1,15.4008680555556,29.9
0.1,11.8,9.59940075527911,6.98769498718995,-0.00427448390352669,1,15.351953125,29.9
0.133333333333333,11.8,9.83225378528415,6.9834976545359,-0.00419733265404787,1,15.3034722222222,29.9
0.166666666666667,11.8,10.0649678802301,6.97935585456763,-0.00414179996826913,1,15.2554253472222,29.9
0.2,11.8,10.2975446186632,6.97525409491249,-0.00410175965514537,1,15.2078125,29.9
0.233333333333333,11.8,10.5299851399444,6.97118127319767,-0.00407282171482137,1,15.1606336805556,29.9
0.266666666666667,11.8,10.7622902687052,6.96712943294736,-0.00405184025031069,1,15.1138888888889,29.9
0.3,11.8,10.9944606040335,6.96309287213007,-0.00403656081728965,1,15.067578125,29.9
0.333333333333333,11.8,11.2264965833863,6.95906750439986,-0.00402536773020401,1,15.0217013888889,29.9
0.366666666666667,11.8,11.4583985283897,6.95505040137947,-0.00401710302039238,1,14.9762586805556,29.9
0.4,11.8,11.6901666776599,6.95103946463339,-0.00401093674607722,1,14.93125,29.9
0.433333333333333,11.8,11.9218012103233,6.94703319054231,-0.00400627409108711,1,14.8866753472222,29.9
0.466666666666667,11.8,12.1533022628712,6.94303050173604,-0.00400268880626342,1,14.8425347222222,29.9
0.5,11.8,12.3846699412377,6.93903062623031,-0.00399987550573222,1,14.798828125,29.9
0.533333333333333,11.8,12.6159043294559,6.93503301077307,-0.00399761545723631,1,14.7555555555556,29.9
0.566666666666667,11.8,12.8470054958598,6.93103725873891,-0.00399575203416092,1,14.7127170138889,29.9
0.6,11.8,13.0779734975296,6.92704308564579,-0.003994173093127,1,14.6703125,29.9
0.633333333333333,11.8,13.3088083834769,6.92305028732138,-0.00399279832440236,1,14.6283420138889,29.9
0.666666666666667,11.8,13.539510196927,6.91905871714157,-0.00399157017981544,1,14.5868055555556,29.9
0.7,11.8,13.7700789769551,6.91506826976362,-0.00399044737794529,1,14.545703125,29.9
0.733333333333333,11.7999796437323,14.0001107477596,6.8868388520801,-0.0282294176835247,3,14.5050347222222,29.9
0.766666666666667,11.799852262338,14.2288844155446,6.8395852247761,-0.0472536273039958,3,14.4648003472222,29.9
0.8,11.7995490323603,14.4559387296749,6.78368830847443,-0.0558969163016734,3,14.425,29.9
0.833333333333333,11.7990346902131,14.6811296345821,6.72780387677893,-0.0558844316955014,3,14.3856336805556,29.9
0.866666666666667,11.7982978365135,14.9043998853137,6.66848681408925,-0.0593170626896757,3,14.3467013888889,29.9
0.9,11.7973422945587,15.1256344606858,6.60571443966157,-0.0627723744276825,3,14.308203125,29.9
0.933333333333333,11.7961803581324,15.344775769669,6.54295233126619,-0.0627621083953835,3,14.2701388888889,29.9
0.966666666666667,11.7948285653719,15.5616797936015,6.47154623187594,-0.0714060993902459,3,14.2325086805556,29.9
1,11.7933053636073,15.7760583504106,6.39149748504971,-0.0800487468262308,3,14.1953125,29.9
1.03333333333333,11.7916300206497,15.9875368823007,6.29761969955516,-0.0938777854945538,3,14.1585503472222,29.9
1.06666666666667,11.7898222852171,16.1956548338249,6.18993709841755,-0.107682601137607,3,14.1222222222222,29.9
1.1,11.7879015702306,16.4000382330189,6.07361841969618,-0.116318678721369,3,14.086328125,29.9
1.13333333333333,11.785887111027,16.6004280150629,5.95038729261954,-0.123231127076645,3,14.0508680555556,29.9
1.16666666666667,11.783799633473,16.7966807424149,5.8254546951741,-0.12493259744544,3,14.0158420138889,29.9
1.2,11.7816608045153,16.9887685844251,5.70054310062828,-0.124911594545811,3,13.98125,29.9
1.23333333333333,11.7794947479827,17.1766924773915,5.5756524646766,-0.124890635951681,3,13.9470920138889,29.9
1.26666666666667,11.7773285390949,17.3604534212222,5.45078299632553,-0.124869468351074,3,13.9133680555556,29.9
1.3,11.7751892223658,17.5400524538293,5.32593557773603,-0.124847418589501,3,13.9133680555556,29.9
1.33333333333333,11.773099399716,17.7154906047605,5.20111130543863,-0.124824272297396,3,13.9133680555556,29.9
1.36666666666667,11.771075665018,17.8867975683065,5.07803323637231,-0.123078069066322,3,13.9133680555556,29.9
1.4,11.7691271109847,18.0539742626717,4.95325763926884,-0.124775597103472,3,13.9133680555556,29.9
1.43333333333333,11.7672549186204,18.2169641130602,4.826784788684,-0.12647285058484,3,13.9133680555556,29.9
1.46666666666667,11.7654546050009,18.3756814094294,4.69687061085194,-0.129914177832055,3,13.9133680555556,29.9
1.5,11.7637187164421,18.5300113353405,4.56351496041226,-0.133355650439688,3,13.9133680555556,29.9
1.53333333333333,11.7620388721455,18.679809357295,4.42490836585824,-0.138606594554014,3,13.9133680555556,29.9
1.56666666666667,11.76040689547,18.8249276305374,4.28272479814196,-0.142183567716285,3,13.9133680555556,29.9
1.6,11.7588150666838,18.9652766984812,4.13875413679845,-0.143970661343507,3,13.9133680555556,29.9
1.63333333333333,11.7572565843207,19.1008261908999,3.99475143168584,-0.14400270511261,3,13.9133680555556,29.9
1.66666666666667,11.7557258158569,19.2316040902183,3.85246224932693,-0.142289182358905,3,13.9133680555556,29.9
1.7,11.7542196033295,19.3575816560344,3.70673670991655,-0.145725539410385,3,13.9133680555556,29.9
1.73333333333333,11.7527370683339,19.4787019449932,3.56103133482307,-0.14570537509348,3,13.9133680555556,29.9
1.76666666666667,11.7512793688693,19.5949080158724,3.41188864956999,-0.149142685253083,3,13.9133680555556,29.9
1.8,11.7498505474394,19.706056733803,3.2575930234812,-0.154295626088786,3,13.9133680555556,29.9
1.83333333333333,11.7484564534694,19.8120051783375,3.09987167782498,-0.157721345656225,3,13.9133680555556,29.9
1.86666666666667,11.7471041030064,19.9126392962544,2.93872841581323,-0.161143262011746,3,13.9133680555556,29.9
1.9,11.7458015022249,20.0078455237269,2.77418797524483,-0.164540440568398,3,13.9133680555556,29.9
1.93333333333333,11.7445564234742,20.0975681567912,2.60969694280801,-0.164491032436821,3,13.9133680555556,29.9
1.96666666666667,11.7433764298801,20.1817511895097,2.4417907160488,-0.167906226759214,3,13.9133680555556,29.9
2,11.7422685723912,20.2603099539368,2.27221460255851,-0.16957611349029,3,13.9133680555556,29.9
2.03333333333333,11.741238117188,20.3331902018265,2.10117874272722,-0.171035859831288,3,13.9133680555556,29.9
2.06666666666667,11.740288043991,20.4003943892072,1.93189670628029,-0.169282036446929,3,13.9133680555556,29.9
2.1,11.7394193118783,20.4619725763706,1.76366024641397,-0.16823645986632,3,13.9133680555556,29.9
2.13333333333333,11.7386318467125,20.5179645093904,1.59670064776001,-0.166959598653964,3,13.9133680555556,29.9
2.16666666666667,11.7379244008633,20.5684427159517,1.43281310570217,-0.163887542057836,3,13.9133680555556,29.9
2.2,11.7372952683564,20.6134812342824,1.27028976025083,-0.162523345451342,3,13.9133680555556,29.9
2.23333333333333,11.7367429171459,20.6531261051745,1.10915779455033,-0.161131965700494,3,13.9133680555556,29.9
2.26666666666667,11.7362654977209,20.6874528792072,0.951197724452993,-0.157960070097341,3,13.9133680555556,29.9
2.3,11.7358612532114,20.7165418496809,0.794881008823335,-0.156316715629659,3,13.9133680555556,29.9
2.33333333333333,11.7355292789075,20.7404191062282,0.638440435356511,-0.156440573466824,3,13.9133680555556,29.9
2.36666666666667,11.7352685478303,20.7591370830141,0.485308257811748,-0.153132177544763,3,13.9133680555556,29.9
2.4,11.7350778289341,20.7727786813451,0.333839649391775,-0.151468608419973,3,13.9133680555556,29.9
2.43333333333333,11.7349559906342,20.7814283070582,0.185756985719491,-0.148082663672284,3,13.9133680555556,29.9
2.46666666666667,11.734901972362,20.7851701764284,0.0394683924686271,-0.146288593250864,3,13.9133680555556,29.9
2.5,11.7348962223878,20.7856076028708,0.0381688351726805,-0.00129955729594669,5,13.9133680555556,29.9
2.53333333333333,11.7349197496988,20.7843398140467,0.00405074781308442,-0.034118087359596,3,13.9133680555556,29.9
2.56666666666667,11.7349197496988,20.7843398140467,0.0053690708293266,0.00131832301624218,5,13.9133680555556,29.9
2.6,11.7349197496988,20.7843398140467,0.00703311100888163,0.00166404017955502,5,13.9133680555556,29.9
2.63333333333333,11.7349197496988,20.7843398140467,0.00891129800328851,0.00187818699440688,5,13.9133680555556,29.9
2.66666666666667,11.7349197496988,20.7843398140467,0.0108280871860323,0.0019167891827438,5,13.9133680555556,29.9
2.7,11.7349197496988,20.7843398140467,0.0125912243426536,0.00176313715662126,5,13.9133680555556,29.9
2.73333333333333,11.7349197496988,20.7843398140467,0.014016431724586,0.00142520738193245,5,13.9133680555556,29.9
2.76666666666667,11.7349197496988,20.7843398140467,0.0149477507895624,0.000931319064976337,5,13.9133680555556,29.9
2.8,11.7349197496988,20.7843398140467,0.015272426507482,0.000324675717919646,5,13.9133680555556,29.9
2.83333333333333,11.7349197496988,20.7843398140467,0.0149298460457191,-0.000342580461762904,5,13.9133680555556,29.9
2.86666666666667,11.7349197496988,20.7843398140467,0.0139146074571628,-0.00101523858855627,5,13.9133680555556,29.9
2.9,11.7349197496988,20.7843398140467,0.0122742602196233,-0.00164034723753956,5,13.9133680555556,29.9
2.93333333333333,11.7349197496988,20.7843398140467,0.0101026099279241,-0.00217165029169918,5,13.9133680555556,29.9
2.96666666666667,11.7349197496988,20.7843398140467,0.00752970652642248,-0.0025729034015016,5,13.9133680555556,29.9
3,11.7349197496988,20.7843398140467,0.00470974181666463,-0.00281996470975785,5,13.9133680555556,29.9
3.03333333333333,11.7349197496988,20.7843398140467,0.00180807856677378,-0.00290166324989085,5,13.9133680555556,29.9
3.06666666666667,11.7349197496988,20.7843398140467,0.00101146241339515,-0.000796616153378634,5,13.9133680555556,29.9
3.1,11.7349197496988,20.7843398140467,0.00359809819323356,0.00258663577983841,5,13.9133680555556,29.9
3.13333333333333,11.7349197496988,20.7843398140467,0.00582361925094106,0.0022255210577075,5,13.9133680555556,29.9
3.16666666666667,11.7349197496988,20.7843398140467,0.00758946223844009,0.00176584298749903,5,13.9133680555556,29.9
3.2,11.7349197496988,20.7843398140467,0.00883106271456228,0.00124160047612219,5,13.9133680555556,29.9
3.23333333333333,11.7349197496988,20.7843398140467,0.0095194614309174,0.000688398716355119,5,13.9133680555556,29.9
3.26666666666667,11.7349197496988,20.7843398140467,0.00966033976796796,0.000140878337050565,5,13.9133680555556,29.9
3.3,11.7349197496988,20.7843398140467,0.00929082271720967,-0.000369517050758298,5,13.9133680555556,29.9
3.33333333333333,11.7349197496988,20.7843398140467,0.00847450530398292,-0.000816317413226748,5,13.9133680555556,29.9
3.36666666666667,11.7349197496988,20.7843398140467,0.00729522852538329,-0.00117927677859963,5,13.9133680555556,29.9
3.4,11.7349197496988,20.7843398140467,0.00585015531580938,-0.00144507320957391,5,13.9133680555556,29.9
3.43333333333333,11.7349197496988,20.7843398140467,0.00424268027648133,-0.00160747503932805,5,13.9133680555556,29.9
3.46666666666667,11.7349197496988,20.7843398140467,0.00257565564468184,-0.00166702463179948,5,13.9133680555556,29.9
3.5,11.7349197496988,20.7843398140467,0.000945338380549085,-0.00163031726413276,5,13.9133680555556,29.9
3.53333333333333,11.7349197496988,20.7843398140467,0.000563631884920007,-0.000381706495629078,5,13.9133680555556,29.9
3.56666666666667,11.7349197496988,20.7843398140467,0.00188201820516233,0.00131838632024233,5,13.9133680555556,29.9
3.6,11.7349197496988,20.7843398140467,0.00295843368672334,0.00107641548156101,5,13.9133680555556,29.9
3.63333333333333,11.7349197496988,20.7843398140467,0.0037604477110571,0.000802014024333759,5,13.9133680555556,29.9
3.66666666666667,11.7349197496988,20.7843398140467,0.00427443391013669,0.000513986199079582,5,13.9133680555556,29.9
3.7,11.7349197496988,20.7843398140467,0.0045043127136134,0.000229878803476711,5,13.9133680555556,29.9
3.73333333333333,11.7349197496988,20.7843398140467,0.0044693926070619,-3.49201065514993e-05,5,13.9133680555556,29.9
3.76666666666667,11.7349197496988,20.7843398140467,0.0042015460716975,-0.000267846535364396,5,13.9133680555556,29.9
3.8,11.7349197496988,20.7843398140467,0.0037419690149689,-0.000459577056728597,5,13.9133680555556,29.9
3.83333333333333,11.7349197496988,20.7843398140467,0.00313776801336189,-0.000604201001607018,5,13.9133680555556,29.9
3.86666666666667,11.7349197496988,20.7843398140467,0.00243860043166453,-0.000699167581697358,5,13.9133680555556,29.9
3.9,11.7349197496988,20.7843398140467,0.00169356161699222,-0.000745038814672307,5,13.9133680555556,29.9
3.93333333333333,11.7349197496988,20.7843398140467,0.000948474364903341,-0.00074508725208888,5,13.9133680555556,29.9
3.96666666666667,11.7349197496988,20.7843398140467,0.000243692239302861,-0.00070478212560048,5,13.9133680555556,29.9
4,11.7349197496988,20.7843398140467,0.000387516567463248,0.000143824328160387,5,13.9133680555556,29.9
4.03333333333333,11.7349197496988,20.7843398140467,0.000919981359915168,0.00053246479245192,5,13.9133680555556,29.9
4.06666666666667,11.7349197496988,20.7843398140467,0.00133705264968882,0.000417071289773654,5,13.9133680555556,29.9
4.1,11.7349197496988,20.7843398140467,0.00163048612393164,0.00029343347424282,5,13.9133680555556,29.9
4.13333333333333,11.7349197496988,20.7843398140467,0.00179986138331095,0.000169375259379305,5,13.9133680555556,29.9
4.16666666666667,11.7349197496988,20.7843398140467,0.00185162794595704,5.17665626460935e-05,5,13.9133680555556,29.9
4.2,11.7349197496988,20.7843398140467,0.00179788109670581,-5.37468492512263e-05,5,13.9133680555556,29.9
4.23333333333333,11.7349197496988,20.7843398140467,0.0016549727869043,-0.00014290830980151,5,13.9133680555556,29.9
4.26666666666667,11.7349197496988,20.7843398140467,0.00144205880004947,-0.000212913986854835,5,13.9133680555556,29.9
4.3,11.7349197496988,20.7843398140467,0.00117967392300003,-0.000262384877049438,5,13.9133680555556,29.9
4.33333333333333,11.7349197496988,20.7843398140467,0.00088841321076052,-0.000291260712239511,5,13.9133680555556,29.9
4.36666666666667,11.7349197496988,20.7843398140467,0.000587780987677919,-0.000300632223082601,5,13.9133680555556,29.9
4.4,11.7349197496988,20.7843398140467,0.00029525135059405,-0.000292529637083869,5,13.9133680555556,29.9
4.43333333333333,11.7349197496988,20.7843398140467,2.55658897526532e-05,-0.000269685460841397,5,13.9133680555556,29.9
4.46666666666667,11.7349197496988,20.7843398140467,0.000209722783203654,0.000184156893451001,5,13.9133680555556,29.9
4.5,11.7349197496988,20.7843398140467,0.000402468425627893,0.000192745642424238,5,13.9133680555556,29.9
4.53333333333333,11.7349197496988,20.7843398140467,0.000547929044802781,0.000145460619174888,5,13.9133680555556,29.9
4.56666666666667,11.7349197496988,20.7843398140467,0.000644574802296704,9.66457574939231e-05,5,13.9133680555556,29.9
4.6,11.7349197496988,20.7843398140467,0.000693742361722749,4.91675594260452e-05,5,13.9133680555556,29.9
4.63333333333333,11.7349197496988,20.7843398140467,0.00069917593437269,5.4335726499406e-06,5,13.9133680555556,29.9
4.66666666666667,11.7349197496988,20.7843398140467,0.000666496257938842,-3.2679676433848e-05,5,13.9133680555556,29.9
4.7,11.7349197496988,20.7843398140467,0.000602637210042513,-6.38590478963286e-05,5,13.9133680555556,29.9
4.73333333333333,11.7349197496988,20.7843398140467,0.000515286150453607,-8.73510595889061e-05,5,13.9133680555556,29.9
4.76666666666667,11.7349197496988,20.7843398140467,0.00041235890350576,-0.000102927246947847,5,13.9133680555556,29.9
4.8,11.7349197496988,20.7843398140467,0.000301534056765793,-0.000110824846739967,5,13.9133680555556,29.9
4.83333333333333,11.7349197496988,20.7843398140467,0.000189864472701852,-0.000111669584063941,5,13.9133680555556,29.9
4.86666666666667,11.7349197496988,20.7843398140467,8.34770555164996e-05,-0.000106387417185352,5,13.9133680555556,29.9
4.9,11.7349197496988,20.7843398140467,1.26347082949862e-05,-7.08423472215135e-05,5,13.9133680555556,29.9
4.93333333333333,11.7349197496988,20.7843398140467,9.47267807717624e-05,8.20920724767763e-05,5,13.9133680555556,29.9
4.96666666666667,11.7349197496988,20.7843398140467,0.00016033548000778,6.56086992360179e-05,5,13.9133680555556,29.9
5,11.7349197496988,20.7843398140467,0.000208233470191249,4.78979901834691e-05,5,13.9133680555556,29.9
5.03333333333333,11.7349197496988,20.7843398140467,0.00023832380843148,3.00903382402302e-05,5,13.9133680555556,29.9
5.06666666666667,11.7349197496988,20.7843398140467,0.00025148666247434,1.31628540428606e-05,5,13.9133680555556,29.9
5.1,11.7349197496988,20.7843398140467,0.000249393892720383,-2.09276975395706e-06,5,13.9133680555556,29.9
5.13333333333333,11.7349197496988,20.7843398140467,0.000234306330084127,-1.50875626362565e-05,5,13.9133680555556,29.9
5.16666666666667,11.7349197496988,20.7843398140467,0.000208867434331309,-2.54388957528175e-05,5,13.9133680555556,29.9
5.2,11.7349197496988,20.7843398140467,0.000175905264155531,-3.29621701757781e-05,5,13.9133680555556,29.9
5.23333333333333,11.7349197496988,20.7843398140467,0.000138252517735497,-3.76527464200342e-05,5,13.9133680555556,29.9
5.26666666666667,11.7349197496988,20.7843398140467,9.8591994843959e-05,-3.96605228915379e-05,5,13.9133680555556,29.9
5.3,11.7349197496988,20.7843398140467,5.93323592993237e-05,-3.92596355446353e-05,5,13.9133680555556,29.9
5.33333333333333,11.7349197496988,20.7843398140467,2.25166929090837e-05,-3.681566639024e-05,5,13.9133680555556,29.9
5.36666666666667,11.7349197496988,20.7843398140467,1.02358484283319e-05,-1.22808444807518e-05,5,13.9133680555556,29.9
5.4,11.7349197496988,20.7843398140467,3.77568464050454e-05,2.75209979767135e-05,5,13.9133680555556,29.9
5.43333333333333,11.7349197496988,20.7843398140467,5.93269884310681e-05,2.15701420260226e-05,5,13.9133680555556,29.9
5.46666666666667,11.7349197496988,20.7843398140467,7.4650205381064e-05,1.5323216949996e-05,5,13.9133680555556,29.9
5.5,11.7349197496988,20.7843398140467,8.38085172342718e-05,9.1583118532078e-06,5,13.9133680555556,29.9
5.53333333333333,11.7349197496988,20.7843398140467,8.72028687445702e-05,3.3943515102984e-06,5,13.9133680555556,29.9
5.56666666666667,11.7349197496988,20.7843398140467,8.54852369271949e-05,-1.71763181737538e-06,5,13.9133680555556,29.9
5.6,11.7349197496988,20.7843398140467,7.94869985301521e-05,-5.99823839704274e-06,5,13.9133680555556,29.9
5.63333333333333,11.7349197496988,20.7843398140467,7.01480186587193e-05,-9.33897987143285e-06,5,13.9133680555556,29.9
5.66666666666667,11.7349197496988,20.7843398140467,5.84502254273864e-05,-1.16977932313328e-05,5,13.9133680555556,29.9
5.7,11.7349197496988,20.7843398140467,4.53586339481645e-05,-1.30915914792219e-05,5,13.9133680555556,29.9
5.73333333333333,11.7349197496988,20.7843398140467,3.17719364721736e-05,-1.35866974759909e-05,5,13.9133680555556,29.9
5.76666666666667,11.7349197496988,20.7843398140467,1.84839378932054e-05,-1.32879985789682e-05,5,13.9133680555556,29.9
5.8,11.7349197496988,20.7843398140467,6.15633232304306e-06,-1.23276055701623e-05,5,13.9133680555556,29.9
5.83333333333333,11.7349197496988,20.7843398140467,4.69737755102944e-06,-1.45895477201362e-06,5,13.9133680555556,29.9
5.86666666666667,11.7349197496988,20.7843398140467,1.37175960625926e-05,9.02021851156314e-06,5,13.9133680555556,29.9
5.9,11.7349197496988,20.7843398140467,2.0695212868922e-05,6.97761680632941e-06,5,13.9133680555556,29.9
5.93333333333333,11.7349197496988,20.7843398140467,2.55605868864013e-05,4.86537401747935e-06,5,13.9133680555556,29.9
5.96666666666667,11.7349197496988,20.7843398140467,2.83666620282525e-05,2.80607514185116e-06,5,13.9133680555556,29.9
6,11.7349197496988,20.7843398140467,2.92680020338735e-05,9.01340005621036e-07,5,13.9133680555556,29.9
6.03333333333333,11.7349197496988,20.7843398140467,2.84974857714551e-05,-7.70516262418413e-07,5,13.9133680555556,29.9
6.06666666666667,11.7349197496988,20.7843398140467,2.63422701955426e-05,-2.15521557591254e-06,5,13.9133680555556,29.9
6.1,11.7349197496988,20.7843398140467,2.31204264185885e-05,-3.22184377695408e-06,5,13.9133680555556,29.9
