Time,x_ego,y_ego,velocity,acceleration,action,x_ped,y_ped
0,11.8,15.9,5,0,1,15.5,29.9
0.0333333333333333,11.8,16.0666076888419,4.99642261439338,-0.0035773856066168,1,15.5,29.9
0.0666666666666667,11.8,16.2330926531145,4.99264756783477,-0.00377504655861216,1,15.5,29.9
0.1,11.8,16.399449296924,4.98873130122091,-0.00391626661385835,1,15.5,29.9
0.133333333333333,11.8,16.5656736245138,4.98471426828108,-0.00401703293983147,1,15.5,29.9
0.166666666666667,11.8,16.7317627870126,4.98062546389497,-0.00408880438611448,1,15.5,29.9
0.2,11.8,16.8977147575669,4.97648566969706,-0.00413979419790333,1,15.5,29.9
0.233333333333333,11.8,17.063528098494,4.97230978036584,-0.00417588933122204,1,15.5,29.9
0.266666666666667,11.8,17.2292017943893,4.96810847105553,-0.00420130931030815,1,15.5,29.9
0.3,11.8,17.3947351325064,4.96388939262275,-0.00421907843277847,1,15.5,29.9
0.333333333333333,11.8,17.5601276170202,4.95965802839236,-0.00423136423039949,1,15.5,29.9
0.366666666666667,11.8,17.7253789075748,4.95541830829244,-0.00423972009991047,1,15.5,29.9
0.4,11.8,17.8904887752388,4.95117304903021,-0.00424525926223307,1,15.5,29.9
0.433333333333333,11.8,18.0554570709351,4.94692426953351,-0.00424877949670321,1,15.5,29.9
0.466666666666667,11.8,18.2202837028143,4.94267341695966,-0.00425085257384605,1,15.5,29.9
0.5,11.8,18.3849686200364,4.93842152859998,-0.00425188835968093,1,15.5,29.9
0.533333333333333,11.8,18.5495118011469,4.93416934785826,-0.00425218074171951,1,15.5,29.9
0.566666666666667,11.8,18.7139132457448,4.92991740734792,-0.00425194051033717,1,15.5,29.9
0.6,11.8,18.8781729685112,4.9256660884612,-0.00425131888672592,1,15.5,29.9
0.633333333333333,11.8,19.0422909949291,4.92141566410698,-0.00425042435422096,1,15.5,29.9
0.666666666666667,11.8,19.2062673582159,4.91716632940257,-0.00424933470440969,1,15.5,29.9
0.7,11.8,19.3701020971241,4.91291822373206,-0.00424810567050482,1,15.5,29.9
0.733333333333333,11.8,19.5337952543655,4.9086714466029,-0.0042467771291621,1,15.5,29.9
0.766666666666667,11.800011356898,19.6973468754385,4.90442616417753,-0.00424528242537381,1,15.5,29.9
0.8,11.800083690705,19.8607570060897,4.90018325953219,-0.00424290464533961,1,15.5,29.9
0.833333333333333,11.8002554826336,20.0240256833333,4.89594350689066,-0.00423975264152965,1,15.5,29.9
0.866666666666667,11.8005366660352,20.1871529282188,4.89170619069698,-0.00423731619367818,1,15.5,29.9
0.9,11.8009138191019,20.3501387541253,4.88746965443332,-0.00423653626365894,1,15.5,29.9
0.933333333333333,11.8013576564651,20.5129831873402,4.88323250705198,-0.00423714738134429,1,15.5,29.9
0.966666666666667,11.801830263615,20.6756862859868,4.87899451020284,-0.00423799684913373,1,15.5,29.9
1,11.802292568471,20.8382481440049,4.87475654149377,-0.00423796870906834,1,15.5,29.9
1.03333333333333,11.8027087591286,21.000668879625,4.87052000848564,-0.00423653300813331,1,15.5,29.9
1.06666666666667,11.8030510639762,21.1629486117129,4.86628621548559,-0.00423379300005156,1,15.5,29.9
1.1,11.8033040972182,21.3250874345869,4.86205567282793,-0.00423054265766343,1,15.5,29.9
1.13333333333333,11.8034633459118,21.4870854095157,4.8578281000809,-0.00422757274702956,1,15.5,29.9
1.16666666666667,11.8035328712323,21.6489425693557,4.8536028118951,-0.00422528818579782,1,15.5,29.9
1.2,11.8035247668435,21.8106589286208,4.84937902605045,-0.00422378584464589,1,15.5,29.9
1.23333333333333,11.8034568254956,21.9722344982222,4.84515617463712,-0.00422285141333312,1,15.5,29.9
1.26666666666667,11.803349262599,22.1336692977623,4.84093410390201,-0.00422207073510705,1,15.5,29.9
1.3,11.8032211994819,22.2949633611664,4.8367129139414,-0.00422118996061283,1,15.5,29.9
1.33333333333333,11.8030912962088,22.4561167339316,4.83249279869721,-0.00422011524419474,1,15.5,29.9
1.36666666666667,11.8029762965768,22.6171294698828,4.82827409851036,-0.00421870018684256,1,15.5,29.9
1.4,11.8028879047508,22.7780016273444,4.82405712806785,-0.00421697044250902,1,15.5,29.9
1.43333333333333,11.802832326725,22.9387332649171,4.81984204009006,-0.00421508797779779,1,15.5,29.9
1.46666666666667,11.8028108211978,23.0993244394183,4.81562884453667,-0.00421319555339039,1,15.5,29.9
1.5,11.8028205480868,23.2597752057852,4.81141746096568,-0.00421138357098272,1,15.5,29.9
1.53333333333333,11.8028556393452,23.4200856178891,4.80720777740012,-0.00420968356556184,1,15.4916666666667,29.9
1.56666666666667,11.8029083949034,23.5802557293778,4.80299969729149,-0.00420808010862839,1,15.4666666666667,29.9
1.6,11.8029704852219,23.7402855940938,4.79879316458611,-0.00420653270538018,1,15.425,29.9
1.63333333333333,11.8030340342362,23.9001752660255,4.79458816566223,-0.00420499892388015,1,15.3752276867031,29.9
1.66666666666667,11.8030924698572,24.0599247989899,4.79038471465739,-0.0042034510048401,1,15.3259107468124,29.9
1.7,11.8031410637776,24.2195342462942,4.7861828330406,-0.00420188161679302,1,15.2770491803279,29.9
1.73333333333333,11.8031771315804,24.3790036605403,4.78198253367286,-0.00420029936774213,1,15.2286429872495,29.9
1.76666666666667,11.8031999174048,24.538333093624,4.77778381483922,-0.00419871883363854,1,15.1806921675774,29.9
1.8,11.8032102332501,24.6975225968911,4.77358666368071,-0.00419715115851194,1,15.1331967213115,29.9
1.83333333333333,11.8032099523091,24.856572221371,4.76939106427169,-0.00419559940901859,1,15.0861566484517,29.9
1.86666666666667,11.8032014638839,25.015482018013,4.76519700489492,-0.00419405937676576,1,15.0395719489982,29.9
1.9,11.8031871850158,25.1742520378661,4.76100448126633,-0.00419252362859623,1,14.9934426229508,29.9
1.93333333333333,11.8031691959813,25.3328823321781,4.75681349555912,-0.00419098570720688,1,14.9477686703097,29.9
1.96666666666667,11.8031490310799,25.4913729524113,4.75262405316861,-0.00418944239050667,1,14.9025500910747,29.9
2,11.8031264722427,25.6497239503013,4.74843618263551,-0.00418787053310599,1,14.8577868852459,29.9
2.03333333333333,11.8030956663321,25.8079353779009,4.74424993032896,-0.00418625230655145,1,14.8134790528233,29.9
2.06666666666667,11.8030453551079,25.9660072867597,4.74006539284252,-0.0041845374864371,1,14.7696265938069,29.9
2.1,11.8029589428215,26.1239397264479,4.73588278787774,-0.00418260496477885,1,14.7262295081967,29.9
2.13333333333333,11.8028164520802,26.2817327416002,4.73170246789591,-0.00418031998182755,1,14.6832877959927,29.9
2.16666666666667,11.8025973936194,26.4393863674904,4.72752480006298,-0.00417766783293416,1,14.6408014571949,29.9
2.2,11.8022854786693,26.5969006260212,4.72334981610047,-0.00417498396251048,1,14.5987704918033,29.9
2.23333333333333,11.8018732883442,26.7542755262551,4.7191770712056,-0.00417274489486985,1,14.5571948998179,29.9
2.26666666666667,11.8013613062715,26.9115110698117,4.71500591784084,-0.00417115336475504,1,14.5160746812386,29.9
2.3,11.8007555251121,27.0686072587516,4.71083574929052,-0.00417016855032681,1,14.4754098360656,29.9
2.33333333333333,11.8000658207437,27.2255641039794,4.70666601108538,-0.00416973820513711,1,14.4352003642987,29.9
2.36666666666667,11.7993055174593,27.3823816335912,4.70249645597914,-0.00416955510623396,1,14.3954462659381,29.9
2.4,11.7984889560063,27.5390598952994,4.69832693749483,-0.0041695184843098,1,14.3561475409836,29.9
2.43333333333333,11.7976333119463,27.6955989627194,4.69415746967597,-0.00416946781886107,1,14.3173041894353,29.9
2.46666666666667,11.7967555270607,27.8519989297783,4.68998847154429,-0.00416899813168481,1,14.2789162112933,29.9
2.5,11.7958705006687,28.0082599019102,4.68582043243383,-0.00416803911045616,1,14.2409836065574,29.9
2.53333333333333,11.7949904941271,28.1643819878916,4.68165380420202,-0.00416662823180758,1,14.2035063752277,29.9
2.56666666666667,11.7941241970395,28.3203652905102,4.67748903682261,-0.00416476737941718,1,14.1664845173042,29.9
2.6,11.7932748360842,28.4762098942463,4.67332643403009,-0.0041626027925199,1,14.1299180327869,29.9
2.63333333333333,11.7924407713236,28.6319158623967,4.66916605845098,-0.00416037557910798,1,14.0938069216758,29.9
2.66666666666667,11.7916168628471,28.7874832397337,4.66500783724026,-0.00415822121072118,1,14.0581511839709,29.9
2.7,11.7907958263857,28.9429120572033,4.66085165003713,-0.00415618720312416,1,14.0229508196721,29.9
2.73333333333333,11.7899694655774,29.0982023371618,4.65669738130307,-0.00415426873406499,1,13.9882058287796,29.9
2.76666666666667,11.7891297069178,29.2533540982029,4.65254493919748,-0.00415244210558718,1,13.9539162112933,29.9
2.8,11.7882693940201,29.4083673591317,4.64839425283047,-0.00415068636701488,1,13.9200819672131,29.9
2.83333333333333,11.7873828226514,29.5632421419671,4.64424526118703,-0.00414899164343474,1,13.9200819672131,29.9
2.86666666666667,11.7864660193142,29.7179784740004,4.64009790367591,-0.00414735751112261,1,13.9200819672131,29.9
2.9,11.7855162379618,29.8725763863711,4.63595218757886,-0.0041457160970495,1,13.9200819672131,29.9
2.93333333333333,11.7845282254143,30.0270358964811,4.63180841146142,-0.00414377611744499,1,13.9200819672131,29.9
2.96666666666667,11.7834883486771,30.1813569761101,4.62766709424755,-0.00414131721386557,1,13.9200819672131,29.9
3,11.7823754092722,30.3355395475558,4.62352891114485,-0.00413818310269498,1,13.9200819672131,29.9
3.03333333333333,11.7811624986124,30.4895834829991,4.61939464565853,-0.00413426548632412,1,13.9200819672131,29.9
3.06666666666667,11.7798222746702,30.6434886210418,4.61526484860592,-0.00412979705261218,1,13.9200819672131,29.9
3.1,11.7783324280871,30.7972547888976,4.61113931934444,-0.00412552926148102,1,13.9200819672131,29.9
3.13333333333333,11.7766809838699,30.9508818351379,4.60701682414049,-0.00412249520395047,1,13.9200819672131,29.9
3.16666666666667,11.7748672114126,31.1043696515008,4.60289563901612,-0.00412118512436521,1,13.9200819672131,29.9
3.2,11.7728988691782,31.2577181804995,4.59877430787827,-0.00412133113785096,1,13.9200819672131,29.9
3.23333333333333,11.7707890484783,31.4109274475911,4.59465423366515,-0.00412007421312399,1,13.9200819672131,29.9
3.26666666666667,11.768553518784,31.5639976907643,4.59054209058741,-0.00411214307773378,1,13.9200819672131,29.9
3.3,11.7662086687717,31.7169294777171,4.58644766825328,-0.00409442233412882,1,13.9200819672131,29.9
3.33333333333333,11.7637700074636,31.8697237437666,4.58238159124038,-0.00406607701289996,1,13.9200819672131,29.9
3.36666666666667,11.7612511294208,32.0223817635003,4.57835350031465,-0.00402809092573797,1,13.9200819672131,29.9
3.4,11.7586630433591,32.1749050812861,4.57437120734415,-0.00398229297049912,1,13.9200819672131,29.9
3.43333333333333,11.7560137907575,32.3272954352011,4.57044071153171,-0.00393049581243687,1,13.9200819672131,29.9
3.46666666666667,11.7533083160091,32.479554687865,4.56656614627636,-0.00387456525535512,1,13.9200819672131,29.9
3.5,11.7505485737216,32.6316847582665,4.56274967927664,-0.00381646699971672,1,13.9200819672131,29.9
3.53333333333333,11.7477338626117,32.7836875596955,4.55899165624785,-0.00375802302879169,1,13.9200819672131,29.9
3.56666666666667,11.7448613602107,32.9355649505286,4.55529096880551,-0.00370068744233532,1,13.9200819672131,29.9
3.6,11.7419268063085,33.0873187017138,4.55164537587508,-0.00364559293043598,1,13.9200819672131,29.9
3.63333333333333,11.7389252571144,33.2389504742954,4.54805172292359,-0.00359365295149061,1,13.9200819672131,29.9
3.66666666666667,11.7358517565021,33.3904658177108,4.54504901075689,-0.00300271216669223,1,13.9200819672131,29.9
3.7,11.7327008708679,33.5419440436686,4.54691008434966,0.00186107359277088,1,13.9200819672131,29.9
3.73333333333333,11.72946559144,33.6936262869471,4.55771326046273,0.0108031761130665,1,13.9200819672131,29.9
3.76666666666667,11.7261385442238,33.845831301899,4.57841249898485,0.0206992385221163,4,13.9200819672131,29.9
3.8,11.7227129019707,33.998883731179,4.60850185851556,0.0300893595307121,4,13.9200819672131,29.9
3.83333333333333,11.7191827064588,34.1530761740563,4.64670778735672,0.0382059288411565,4,13.9200819672131,29.9
3.86666666666667,11.7155427505112,34.3086566978869,4.69170343552401,0.0449956481672986,4,13.9200819672131,29.9
3.9,11.7117882460055,34.4658304536462,4.74223500999357,0.0505315744695585,4,13.9200819672131,29.9
3.93333333333333,11.7079145508526,34.6247622296216,4.79714480299652,0.0549097930029507,4,13.9200819672131,29.9
3.96666666666667,11.7039169841036,34.7855804347168,4.85541225072477,0.058267447728249,4,13.9200819672131,29.9
4,11.6997901498292,34.9483817216669,4.91614637244218,0.0607341217174104,4,13.9200819672131,29.9
4.03333333333333,11.6955265159393,35.1132345284015,4.97855333265756,0.0624069602153812,4,13.9200819672131,29.9
4.06666666666667,11.6911183205035,35.2801828748684,5.04195090199089,0.0633975693333246,4,13.9200819672131,29.9
4.1,11.6865563123632,35.4492473486554,5.1055886720237,0.0636377700328081,4,13.9200819672131,29.9
4.13333333333333,11.681829033154,35.6204221476321,5.16866335808909,0.0630746860653888,4,13.9200819672131,29.9
4.16666666666667,11.6769206607637,35.7936755939342,5.23045690361631,0.0617935455272205,4,13.9200819672131,29.9
4.2,11.6718165865169,35.968955878787,5.29051478705014,0.0600578834338377,4,13.9200819672131,29.9
4.23333333333333,11.6665054540082,36.1462011371355,5.34864984166438,0.0581350546142394,4,13.9200819672131,29.9
4.26666666666667,11.6609811226411,36.3253456817513,5.40480782319097,0.0561579815265869,4,13.9200819672131,29.9
4.3,11.6552418575207,36.506323970732,5.45903672053375,0.0542288973427851,4,13.9200819672131,29.9
4.33333333333333,11.6492888024675,36.6890726922692,5.51138417641223,0.0523474558784711,4,13.9200819672131,29.9
4.36666666666667,11.6431247749993,36.8735281417805,5.56180259637453,0.0504184199623054,4,13.9200819672131,29.9
4.4,11.6367532840126,37.0596269057014,5.61036849595848,0.0485658995839451,4,13.9200819672131,29.9
4.43333333333333,11.630177774661,37.2473095459179,5.65722870883177,0.0468602128732982,4,13.9200819672131,29.9
4.46666666666667,11.6234011905883,37.4365218315967,5.70254600574049,0.0453172969087179,4,13.9200819672131,29.9
4.5,11.6164257353772,37.627215270476,5.74650257195591,0.0439565662154191,4,13.9200819672131,29.9
4.53333333333333,11.609252764354,37.8193470496169,5.78923514629523,0.0427325743393157,4,13.9200819672131,29.9
4.56666666666667,11.6018836177572,38.0128747166671,5.83058212915721,0.0413469828619784,4,13.9200819672131,29.9
4.6,11.5943230169201,38.2077464760474,5.87021952540502,0.0396373962478105,4,13.9200819672131,29.9
4.63333333333333,11.586582328038,38.4039020981015,5.90795646498774,0.0377369395827198,4,13.9200819672131,29.9
4.66666666666667,11.5786847842022,38.601277450164,5.94370950184015,0.0357530368524124,4,13.9200819672131,29.9
4.7,11.5706704781221,38.7998068720908,5.97741052970677,0.0337010278666243,4,13.9200819672131,29.9
4.73333333333333,11.5625951241842,38.9994223116364,6.00894015834387,0.0315296286371005,4,13.9200819672131,29.9
4.76666666666667,11.5545256092397,39.2000515085672,6.03814910867441,0.0292089503305331,4,13.9200819672131,29.9
4.8,11.5465227305929,39.4016176764086,6.06494755781732,0.0267984491429134,4,13.9200819672131,29.9
