Time,x_ego,y_ego,velocity,acceleration,action,x_ped,y_ped
0,11.8,15.9,7,0,1,15.5,29.9
0.0333333333333333,11.8,16.1332703793943,6.99615577953002,-0.00384422046998356,1,15.5,29.9
0.0666666666666667,11.8,16.3664065988113,6.99196947109348,-0.00418630843653833,1,15.5,29.9
0.1,11.8,16.5994007552791,6.98769498718995,-0.00427448390352669,1,15.5,29.9
0.133333333333333,11.8,16.8322537852842,6.9834976545359,-0.00419733265404787,1,15.5,29.9
0.166666666666667,11.8,17.0649678802301,6.97935585456763,-0.00414179996826913,1,15.5,29.9
0.2,11.8,17.2975446186632,6.97525409491249,-0.00410175965514537,1,15.5,29.9
0.233333333333333,11.8,17.5299851399444,6.97118127319767,-0.00407282171482137,1,15.5,29.9
0.266666666666667,11.8,17.7622902687052,6.96712943294736,-0.00405184025031069,1,15.5,29.9
0.3,11.8,17.9944606040335,6.96309287213007,-0.00403656081728965,1,15.5,29.9
0.333333333333333,11.8,18.2264965833863,6.95906750439986,-0.00402536773020401,1,15.5,29.9
0.366666666666667,11.8,18.4583985283897,6.95505040137947,-0.00401710302039238,1,15.5,29.9
0.4,11.8,18.6901666776599,6.95103946463339,-0.00401093674607722,1,15.5,29.9
0.433333333333333,11.8,18.9218012103233,6.94703319054231,-0.00400627409108711,1,15.5,29.9
0.466666666666667,11.8,19.1533022628712,6.94303050173604,-0.00400268880626342,1,15.5,29.9
0.5,11.8,19.3846699412377,6.93903062623031,-0.00399987550573222,1,15.5,29.9
0.533333333333333,11.8000000418811,19.6159043294559,6.93503301077395,-0.00399761545636146,1,15.5,29.9
0.566666666666667,11.8000003041261,19.8470054958598,6.93103725874861,-0.00399575202534219,1,15.5,29.9
0.6,11.8000009290782,20.0779734975294,6.92704308567898,-0.00399417306963201,1,15.5,29.9
0.633333333333333,11.8000019907887,20.3088083834759,6.9230502873911,-0.00399279828787513,1,15.5,29.9
0.666666666666667,11.8000035151653,20.5395101969239,6.91905871725344,-0.00399157013765628,1,15.5,29.9
0.7,11.8000054981563,20.7700789769479,6.91506826991543,-0.00399044733801812,1,15.5,29.9
0.733333333333333,11.8000079197703,21.0005147596437,6.91107886968197,-0.00398940023345773,1,15.5,29.9
0.766666666666667,11.800010753421,21.2308175789696,6.90709046218852,-0.00398840749344842,1,15.5,29.9
0.8,11.8000139712233,21.4609874673475,6.90310300842266,-0.0039874537658644,1,15.5,29.9
0.833333333333333,11.8000175464292,21.6910244560947,6.89911648041483,-0.00398652800782884,1,15.5,29.9
0.866666666666667,11.8000214126047,21.9209285757336,6.89513085809271,-0.00398562232212107,1,15.5,29.9
0.9,11.8000253695269,22.1506998562141,6.89114612707296,-0.00398473101974517,1,15.5,29.9
0.933333333333333,11.8000284228742,22.3803383270804,6.88716227702282,-0.00398385005014301,1,15.5,29.9
0.966666666666667,11.8000269314265,22.6098440176005,6.88317930348563,-0.00398297353718569,1,15.5,29.9
1,11.8000180188844,22.8392169567657,6.87919720411429,-0.00398209937134641,1,15.5,29.9
1.03333333333333,11.7999994110259,23.0684571732773,6.87521598034726,-0.00398122376702847,1,15.5,29.9
1.06666666666667,11.7999664055671,23.2975646954519,6.87123564630931,-0.00398033403794695,1,15.5,29.9
1.1,11.7999128738694,23.5265395509142,6.86725621245737,-0.00397943385193855,1,15.5,29.9
1.13333333333333,11.7998350111556,23.755381766424,6.86327766708268,-0.00397854537469478,1,15.5,29.9
1.16666666666667,11.7997314148906,23.9840913680222,6.85929998758793,-0.00397767949474659,1,15.5,29.9
1.2,11.799602239859,24.2126683813793,6.85532315184218,-0.00397683574574881,1,15.5,29.9
1.23333333333333,11.7994485231567,24.4411128321834,6.85134714539413,-0.00397600644805429,1,15.5,29.9
1.26666666666667,11.7992709223687,24.6694247461561,6.84737199337654,-0.00397515201758836,1,15.5,29.9
1.3,11.799067635847,24.8976041481451,6.84339771265696,-0.00397428071958217,1,15.5,29.9
1.33333333333333,11.7988374821283,25.125651062783,6.83942428445688,-0.00397342820007651,1,15.5,29.9
1.36666666666667,11.7985804349799,25.3535655149996,6.83545169317949,-0.00397259127738891,1,15.5,29.9
1.4,11.7982972155341,25.5813475301967,6.8314799284221,-0.00397176475738714,1,15.5,29.9
1.43333333333333,11.7979889321024,25.8089971342933,6.82750898570596,-0.00397094271613874,1,15.5,29.9
1.46666666666667,11.7976567985259,26.0365143536634,6.82353886571228,-0.00397011999368146,1,15.5,29.9
1.5,11.7973019418143,26.2638992150102,6.8195695725747,-0.00396929313758143,1,15.5,29.9
1.53333333333333,11.7969252940728,26.4911517452186,6.81560111196415,-0.00396846061054834,1,15.4916666666667,29.9
1.56666666666667,11.796527553364,26.7182719712238,6.81163348951669,-0.00396762244746096,1,15.4666666666667,29.9
1.6,11.7961091932444,26.945259919914,6.8076667098477,-0.0039667796689935,1,15.425,29.9
1.63333333333333,11.7956705004718,27.1721156180747,6.80370077614041,-0.00396593370728837,1,15.3752276867031,29.9
1.66666666666667,11.7952116234894,27.3988390923694,6.79973569015955,-0.00396508598085621,1,15.3259107468124,29.9
1.7,11.7947326192197,27.6254303693443,6.79577145250917,-0.00396423765038278,1,15.2770491803279,29.9
1.73333333333333,11.7942334910375,27.8518894754455,6.79180806298266,-0.00396338952651121,1,15.2286429872495,29.9
1.76666666666667,11.7937142154493,28.0782164370395,6.78784552090209,-0.00396254208057378,1,15.1806921675774,29.9
1.8,11.7931747583425,28.3044112804315,6.78388382538978,-0.00396169551230408,1,15.1331967213115,29.9
1.83333333333333,11.7926150834863,28.5304740318785,6.77992297555048,-0.00396084983930667,1,15.0861566484517,29.9
1.86666666666667,11.7920351564375,28.7564047176002,6.77596297056684,-0.0039600049836368,1,15.0395719489982,29.9
1.9,11.7914349465142,28.982203363788,6.77200380972647,-0.00395916084036863,1,14.9934426229508,29.9
1.93333333333333,11.7908144285177,29.2078699966144,6.76804549240548,-0.00395831732098717,1,14.9477686703097,29.9
1.96666666666667,11.7901735848409,29.4334046422434,6.76408801803369,-0.00395747437179406,1,14.9025500910747,29.9
2,11.7895124077921,29.6588073268415,6.76013138606117,-0.00395663197252016,1,14.8577868852459,29.9
2.03333333333333,11.7888309015358,29.8840780765875,6.7561755959379,-0.00395579012327119,1,14.8134790528233,29.9
2.06666666666667,11.7881290830127,30.1092169176794,6.75222064710989,-0.00395494882800929,1,14.7696265938069,29.9
2.1,11.7874069814385,30.3342238763377,6.74826653902883,-0.00395410808105634,1,14.7262295081967,29.9
2.13333333333333,11.7866646363572,30.5590989788039,6.7443132711686,-0.00395326786023631,1,14.6832877959927,29.9
2.16666666666667,11.7859020945856,30.7838422513346,6.74036084304117,-0.00395242812742147,1,14.6408014571949,29.9
2.2,11.7851194066293,31.0084537201936,6.73640925420629,-0.00395158883488822,1,14.5987704918033,29.9
2.23333333333333,11.7843166232213,31.2329334116419,6.73245850427169,-0.00395074993459144,1,14.5571948998179,29.9
2.26666666666667,11.7834937925444,31.4572813519295,6.72850859288447,-0.00394991138722833,1,14.5160746812386,29.9
2.3,11.7826509584908,31.681497567289,6.72455951971586,-0.00394907316860227,1,14.4754098360656,29.9
2.33333333333333,11.7817881600588,31.9055820839319,6.72061128444385,-0.00394823527201549,1,14.4352003642987,29.9
2.36666666666667,11.7809054317491,32.1295349280486,6.71666388673719,-0.00394739770666064,1,14.3954462659381,29.9
2.4,11.7800028046598,32.3533561258104,6.71271732624422,-0.00394656049297293,1,14.3561475409836,29.9
2.43333333333333,11.779080307906,32.577045703374,6.70877160258767,-0.00394572365654078,1,14.3173041894353,29.9
2.46666666666667,11.7781379700093,32.8006036868849,6.70482671536556,-0.00394488722210973,1,14.2789162112933,29.9
2.5,11.7771758199925,33.0240301024818,6.70088266415659,-0.00394405120897101,1,14.2409836065574,29.9
2.53333333333333,11.7761938880372,33.2473249762989,6.69693944852815,-0.00394321562844802,1,14.2035063752277,29.9
2.56666666666667,11.7751922056889,33.4704883344671,6.6929970680446,-0.00394238048354545,1,14.1664845173042,29.9
2.6,11.774170805692,33.6935202031137,6.6890555222742,-0.00394154577040506,1,14.1299180327869,29.9
2.63333333333333,11.7731297215965,33.916420608361,6.68511481079335,-0.00394071148084674,1,14.0938069216758,29.9
2.66666666666667,11.7720689872886,34.1391895763252,6.68117493318815,-0.00393987760519554,1,14.0581511839709,29.9
2.7,11.770989405131,34.3618271364049,6.67723585006357,-0.00393908312458091,1,14.0229508196721,29.9
2.73333333333333,11.7698942991435,34.5843333292678,6.67329754991925,-0.00393830014431718,1,13.9882058287796,29.9
2.76666666666667,11.7687863544954,34.8067081938232,6.66936006685365,-0.00393748306560049,1,13.9539162112933,29.9
2.8,11.7676670020365,35.0289517640879,6.66542342239479,-0.00393664445886621,1,13.9200819672131,29.9
2.83333333333333,11.76653676965,35.2510640702405,6.66148762672821,-0.00393579566657909,1,13.9200819672131,29.9
2.86666666666667,11.7653956093771,35.4730451397822,6.65755268225606,-0.00393494447214504,1,13.9200819672131,29.9
2.9,11.7642431566968,35.6948949985619,6.65361858707553,-0.00393409518053733,1,13.9200819672131,29.9
2.93333333333333,11.7630789088182,35.9166136715441,6.64968533747871,-0.00393324959681962,1,13.9200819672131,29.9
2.96666666666667,11.7619023302763,36.1382011833024,6.64575292944851,-0.00393240803019701,1,13.9200819672131,29.9
3,11.7607129054154,36.3596575582933,6.64182135941563,-0.0039315700328757,1,13.9200819672131,29.9
3.03333333333333,11.7595101597563,36.5809828209942,6.63789062453764,-0.00393073487799178,1,13.9200819672131,29.9
3.06666666666667,11.7582936684399,36.8021769959808,6.63396072268762,-0.00392990185001985,1,13.9200819672131,29.9
3.1,11.7570630630842,37.0232401079975,6.63003165228712,-0.00392907040049995,1,13.9200819672131,29.9
3.13333333333333,11.7558180412922,37.2441721820381,6.62610341208822,-0.00392824019890092,1,13.9200819672131,29.9
3.16666666666667,11.7545583776612,37.464973243433,6.62217600098331,-0.00392741110491457,1,13.9200819672131,29.9
3.2,11.7532839323801,37.6856433179215,6.61824941788923,-0.00392658309407867,1,13.9200819672131,29.9
3.23333333333333,11.7519946533103,37.9061824316879,6.61432366171875,-0.00392575617048241,1,13.9200819672131,29.9
3.26666666666667,11.7506905691089,38.1265906113459,6.61039873142354,-0.00392493029520846,1,13.9200819672131,29.9
3.3,11.7493717734586,38.3468678838692,6.606474626075,-0.00392410534853749,1,13.9200819672131,29.9
3.33333333333333,11.7480384028272,38.5670142764804,6.60255134494385,-0.00392328113115337,1,13.9200819672131,29.9
3.36666666666667,11.7466906116967,38.787029816519,6.59862888754639,-0.00392245739746144,1,13.9200819672131,29.9
3.4,11.7453285495636,39.0069145313115,6.59470725364086,-0.00392163390552547,1,13.9200819672131,29.9
3.43333333333333,11.7439523432835,39.2266684480668,6.5907864431753,-0.00392081046555592,1,13.9200819672131,29.9
3.46666666666667,11.7425620868705,39.4462915938103,6.58686645620304,-0.00391998697226459,1,13.9200819672131,29.9
