Time,x_ego,y_ego,velocity,acceleration,action,x_ped,y_ped
0,11.8,8.9,7,0,1,15.5,29.9
0.0333333333333333,11.7999991556326,9.13327037939405,6.9961557798823,-0.00384422011770269,1,15.4972222222222,29.9
0.0666666666666667,11.7999938724217,9.36640659880093,6.99196947498367,-0.00418630489862348,1,15.4888888888889,29.9
0.1,11.799981290911,9.5994007551861,6.98769500047537,-0.00427447450830609,1,15.475,29.9
0.133333333333333,11.799959928311,9.83225378487076,6.98349768237817,-0.0041973180971997,1,15.4555555555556,29.9
0.166666666666667,11.7999292675115,10.064967878987,6.9793558991536,-0.00414178322456493,1,15.4305555555556,29.9
0.2,11.7998893888109,10.2975446157421,6.97525415530547,-0.00410174384813455,1,15.4,29.9
0.233333333333333,11.7998406878021,10.5299851341457,6.97118134647772,-0.00407280882774508,1,15.3666666666667,29.9
0.266666666666667,11.7997836887301,10.76229025851,6.96712951555286,-0.00405183092486805,1,15.3333333333333,29.9
0.3,11.7997189398368,10.9944605876619,6.9630929607827,-0.00403655477015707,1,15.3,29.9
0.333333333333333,11.7996469661865,11.2264965588621,6.95906759649829,-0.00402536428440392,1,15.2666666666667,29.9
0.366666666666667,11.7995682542707,11.4583984935997,6.95505049501719,-0.00401710148110634,1,15.2333333333333,29.9
0.4,11.7994832480002,11.6901666304015,6.95103955844974,-0.00401093656744589,1,15.2,29.9
0.433333333333333,11.7993923439172,11.9218011483377,6.94703328355868,-0.00400627489105787,1,15.1666666666667,29.9
0.466666666666667,11.7992958815275,12.1533021838602,6.94303059324841,-0.00400269031027456,1,15.1333333333333,29.9
0.5,11.7991941305593,12.3846698428662,6.93903071576646,-0.00399987748194697,1,15.1,29.9
0.533333333333333,11.7990872798548,12.6159042093404,6.93503309808947,-0.00399761767699491,1,15.0666666666667,29.9
0.566666666666667,11.7989754326791,12.8470053515472,6.93103734382374,-0.00399575426572962,1,15.0333333333333,29.9
0.6,11.7988586113389,13.0779733264704,6.92704316870383,-0.00399417511991107,1,15,29.9
0.633333333333333,11.7987367712691,13.3088081829978,6.92305036873156,-0.00399279997226998,1,14.9666666666667,29.9
0.666666666666667,11.7986098222063,13.5395099642075,6.91905879739163,-0.00399157133992745,1,14.9333333333333,29.9
0.7,11.7984776524496,13.7700787090112,6.91506834937421,-0.00399044801741599,1,14.9,29.9
0.733333333333333,11.7983401518047,14.0005144533354,6.91107894894945,-0.0039894004247687,1,14.8666666666667,29.9
0.766666666666667,11.7981972295258,14.2308172309702,6.90709054165695,-0.00398840729249095,1,14.8333333333333,29.9
0.8,11.7980488250494,14.4609870741784,6.90310308835145,-0.00398745330550732,1,14.8,29.9
0.833333333333333,11.7978949110564,14.6910240141309,6.89911656092095,-0.00398652743049688,1,14.7666666666667,29.9
0.866666666666667,11.7977354899653,14.9209280812169,6.89513093919432,-0.00398562172662675,1,14.7333333333333,29.9
0.9,11.7975705860071,15.1506993052636,6.89114620869842,-0.00398473049590287,1,14.7,29.9
0.933333333333333,11.7974002354391,15.3803377156906,6.88716235902748,-0.00398384967094501,1,14.6666666666667,29.9
0.966666666666667,11.7972244772446,15.6098433416198,6.88317938265898,-0.00398297636849332,1,14.6333333333333,29.9
1,11.7970433460193,15.8392162119523,6.87919727409937,-0.00398210855961612,1,14.6,29.9
1.03333333333333,11.7968576988893,16.0684563559805,6.87521601892545,-0.00398125517391179,1,14.5666666666667,29.9
1.06666666666667,11.7966711392413,16.2975638048474,6.87123561293505,-0.0039804059904025,1,14.5333333333333,29.9
1.1,11.7964875171778,16.5265385900482,6.86725605956788,-0.00397955336717004,1,14.5,29.9
1.13333333333333,11.7963136164218,16.7553807452739,6.86327736808865,-0.00397869147923391,1,14.4666666666667,29.9
1.16666666666667,11.7961605550243,16.9840903072242,6.85929958880858,-0.00397777928006438,1,14.4333333333333,29.9
1.2,11.7960394700592,17.2126673116709,6.85532278699964,-0.00397680180894611,1,14.4,29.9
1.23333333333333,11.7959595863751,17.4411117907893,6.85134698597765,-0.00397580102198791,1,14.3666666666667,29.9
1.26666666666667,11.795924688863,17.669423770146,6.84737209857871,-0.00397488739894136,1,14.3333333333333,29.9
1.3,11.7959320664221,17.8976032693766,6.84339801038483,-0.0039740881938739,1,14.3,29.9
1.33333333333333,11.795977440515,18.1256503073535,6.83942468025508,-0.00397333012975132,1,14.2666666666667,29.9
1.36666666666667,11.7960567237349,18.3535649043599,6.83545210760669,-0.00397257264838924,1,14.2333333333333,29.9
1.4,11.7961663496734,18.581347082617,6.83148031205731,-0.00397179554938809,1,14.2,29.9
1.43333333333333,11.7963033272106,18.8089968661742,6.82750931706302,-0.00397099499428055,1,14.1666666666667,29.9
1.46666666666667,11.7964651698705,19.0365142805175,6.82353914148736,-0.00397017557566581,1,14.1333333333333,29.9
1.5,11.7966498073204,19.2638989888075,6.81954799878798,-0.00399114269937773,1,14.1,29.9
1.53333333333333,11.7968554893139,19.4909486489113,6.80343758018375,-0.0161104186042342,1,14.0666666666667,29.9
1.56666666666667,11.797079887638,19.7170867332284,6.76485502223627,-0.0385825579474819,3,14.0333333333333,29.9
1.6,11.7973166085784,19.9413331541236,6.68993942592614,-0.0749155963101247,3,14,29.9
1.63333333333333,11.7975531975451,20.162621510439,6.58737210149929,-0.102567324426851,3,13.9666666666667,29.9
1.66666666666667,11.7977732068007,20.3802027501946,6.46751246854958,-0.119859632949708,3,13.9333333333333,29.9
1.7,11.7979581897581,20.5936447748211,6.33901863636032,-0.128493832189259,3,13.9,29.9
1.73333333333333,11.7980884173116,20.8027753557746,6.20882550028819,-0.130193136072136,3,13.8666666666667,29.9
1.76666666666667,11.7981492337652,21.0075665520557,6.07865671782064,-0.130168782467547,3,13.8333333333333,29.9
1.8,11.7981322754007,21.2081056154084,5.95370101349854,-0.1249557043221,3,13.8,29.9
1.83333333333333,11.7980377922456,21.404652732196,5.83914565633991,-0.114555357158629,3,13.7666666666667,29.9
1.86666666666667,11.7978780037674,21.5974393551956,5.72807820862329,-0.111067447716623,3,13.7333333333333,29.9
1.9,11.79767599676,21.7864662079131,5.61356510714914,-0.114513101474143,3,13.7,29.9
1.93333333333333,11.7974601532799,21.9714455470266,5.48523005521942,-0.128335051929728,3,13.6666666666667,29.9
1.96666666666667,11.7972558525258,22.1517728578815,5.33444257344488,-0.150787481774532,3,13.6333333333333,29.9
2,11.7970828643938,22.3266416951778,5.15771811967135,-0.176724453773534,3,13.6,29.9
2.03333333333333,11.796953524091,22.4953031134151,4.96199257365689,-0.19572554601446,3,13.5666666666667,29.9
2.06666666666667,11.7968736561739,22.6572393267268,4.7542009994345,-0.207791574222392,3,13.5333333333333,29.9
2.1,11.7968440689489,22.812105555304,4.53778963889795,-0.216411360536547,3,13.5,29.9
2.13333333333333,11.7968617285561,22.9596722397071,4.31622585666821,-0.22156378222974,3,13.4666666666667,29.9
2.16666666666667,11.7969206272422,23.0998531792063,4.09461903500104,-0.221606821667169,3,13.4333333333333,29.9
2.2,11.7970125187144,23.2326456857896,3.87292858095872,-0.221690454042322,3,13.4,29.9
2.23333333333333,11.7971276268583,23.3580477646832,3.65119999746662,-0.221728583492097,3,13.3666666666667,29.9
2.26666666666667,11.7972553999952,23.4760587155718,3.42946567582065,-0.221734321645973,3,13.3333333333333,29.9
2.3,11.7973849557326,23.5866787594549,3.20774860897704,-0.221717066843615,3,13.3,29.9
2.33333333333333,11.797504570424,23.6899087707864,2.98606510497203,-0.221683504005008,3,13.2666666666667,29.9
2.36666666666667,11.797602748102,23.7857500850024,2.76442678027221,-0.221638324699817,3,13.2333333333333,29.9
2.4,11.7976697860668,23.8742043598907,2.54284191603339,-0.221584864238819,3,13.2,29.9
2.43333333333333,11.7976992829727,23.9552734757815,2.32131636170128,-0.221525554332112,3,13.1666666666667,29.9
2.46666666666667,11.797689881256,24.0289600509477,2.09997764547892,-0.221338716222358,3,13.1333333333333,29.9
2.5,11.7976448498911,24.0952923025222,1.8804186626638,-0.219558982815121,3,13.1,29.9
2.53333333333333,11.797570478636,24.1543562826381,1.66398578868615,-0.216432873977647,3,13.0666666666667,29.9
2.56666666666667,11.7974745072,24.2062633227572,1.45104333678243,-0.21294245190372,3,13.0333333333333,29.9
2.6,11.7973648856242,24.2511331132196,1.24177830718872,-0.209265029593715,3,13,29.9
2.63333333333333,11.797248930293,24.2890901199011,1.03629685626783,-0.20548145092089,3,12.9666666666667,29.9
2.66666666666667,11.7971328463575,24.3202633165303,0.834807905125632,-0.201488951142197,3,12.9333333333333,29.9
2.7,11.7970215411732,24.3447894033312,0.637469994187685,-0.197337910937947,3,12.9,29.9
2.73333333333333,11.7969186409791,24.3628059546561,0.444268108459526,-0.193201885728158,3,12.8666666666667,29.9
2.76666666666667,11.7968266278269,24.3744527764317,0.25531855437709,-0.188949554082437,3,12.8333333333333,29.9
2.8,11.7967470344744,24.3798710711693,0.0707142558004635,-0.184604298576626,3,12.8,29.9
2.83333333333333,11.7966804758164,24.3797697856903,0.0278645122653375,-0.042849743535126,3,12.7666666666667,29.9
2.86666666666667,11.7966257572625,24.3788548763144,0.00509346321168292,-0.0227710490536546,3,12.7333333333333,29.9
2.9,11.7966257572625,24.3788548763144,0.00635553572344501,0.00126207251176209,5,12.7,29.9
2.93333333333333,11.7966257572625,24.3788548763144,0.00815731638187143,0.00180178065842642,5,12.6666666666667,29.9
2.96666666666667,11.7966257572625,24.3788548763144,0.0103266531601198,0.00216933677824836,5,12.6333333333333,29.9
3,11.7966257572625,24.3788548763144,0.0126317813500624,0.0023051281899426,5,12.6,29.9
3.03333333333333,11.7966257572625,24.3788548763144,0.0148172613627141,0.00218548001265172,5,12.5666666666667,29.9
3.06666666666667,11.7966257572625,24.3788548763144,0.0166364795033964,0.00181921814068227,5,12.5333333333333,29.9
3.1,11.7966257572625,24.3788548763144,0.0178784379741055,0.00124195847070916,5,12.5,29.9
3.13333333333333,11.7966257572625,24.3788548763144,0.0183874055394783,0.000508967565372765,5,12.4666666666667,29.9
3.16666666666667,11.7966257572625,24.3788548763144,0.018074814254057,-0.00031259128542126,5,12.4333333333333,29.9
3.2,11.7966257572625,24.3788548763144,0.0169235148255007,-0.00115129942855633,5,12.4,29.9
3.23333333333333,11.7966257572625,24.3788548763144,0.0149851036676744,-0.00193841115782634,5,12.3666666666667,29.9
3.26666666666667,11.7966257572625,24.3788548763144,0.0123714844233848,-0.00261361924428955,5,12.3333333333333,29.9
3.3,11.7966257572625,24.3788548763144,0.00924211657553631,-0.00312936784784851,5,12.3,29.9
3.33333333333333,11.7966257572625,24.3788548763144,0.00578853768426795,-0.00345357889126836,5,12.2666666666667,29.9
3.36666666666667,11.7966257572625,24.3788548763144,0.00231621890936952,-0.00347231877489843,5,12.2333333333333,29.9
3.4,11.7966255217776,24.3794621101007,0.0343870575059692,0.0320708385965997,4,12.2,29.9
3.43333333333333,11.7966247464759,24.3814605932613,0.0855281981487426,0.0511411406427734,4,12.1666666666667,29.9
3.46666666666667,11.7966233094216,24.385151373843,0.135984492619483,0.0504562944707406,4,12.1333333333333,29.9
3.5,11.7966212066278,24.3905075491615,0.185480931328556,0.0494964387090725,4,12.1,29.9
3.53333333333333,11.7966184214924,24.3974947541091,0.233837470517539,0.0483565391889836,4,12.0666666666667,29.9
3.56666666666667,11.7966149114891,24.4060739810318,0.28098238292182,0.0471449124042808,4,12.0333333333333,29.9
3.6,11.7966106014363,24.416206087602,0.326974354119729,0.045991971197909,4,12,29.9
3.63333333333333,11.7966053586649,24.4278538562054,0.371874304030393,0.0448999499106644,4,11.9666666666667,29.9
3.66666666666667,11.7965989807574,24.4409816873594,0.41573048644222,0.0438561824118264,4,11.9333333333333,29.9
3.7,11.7965912041187,24.4555552889472,0.458581193472305,0.0428507070300853,4,11.9,29.9
3.73333333333333,11.7965816797714,24.4715413537495,0.500446460524081,0.0418652670517755,4,11.8666666666667,29.9
3.76666666666667,11.7965700050142,24.4889067357271,0.541320528552609,0.0408740680285281,4,11.8333333333333,29.9
3.8,11.7965557433645,24.5076181685662,0.581201879046163,0.0398813504935547,4,11.8,29.9
3.83333333333333,11.7965384380655,24.5276425081226,0.620095597613414,0.0388937185672504,4,11.7666666666667,29.9
3.86666666666667,11.7965176279932,24.5489469267873,0.658011827293077,0.0379162296796631,4,11.7333333333333,29.9
3.9,11.7964928652177,24.5714990569253,0.694966025565598,0.0369541982725207,4,11.7,29.9
3.93333333333333,11.7964637331619,24.5952674710777,0.73100291487595,0.0360368893103521,4,11.6666666666667,29.9
3.96666666666667,11.7964298642196,24.6202227160426,0.76618706344772,0.0351841485717704,4,11.6333333333333,29.9
4,11.7963909564088,24.6463373216312,0.800572074279554,0.0343850108318338,4,11.6,29.9
4.03333333333333,11.7963467878043,24.6735854246704,0.834201776826937,0.0336297025473826,4,11.5666666666667,29.9
4.06666666666667,11.7962972276652,24.7019424813066,0.867112597968112,0.0329108211411752,4,11.5333333333333,29.9
4.1,11.7962422435057,24.7313850517262,0.899335306202745,0.0322227082346332,4,11.5,29.9
4.13333333333333,11.7961819035904,24.7618905701805,0.930887529790265,0.03155222358752,4,11.4666666666667,29.9
4.16666666666667,11.7961163749667,24.793436313372,0.961742265430316,0.0308547356400506,4,11.4333333333333,29.9
4.2,11.7960459165568,24.8259985153329,0.991872377643879,0.0301301122135635,4,11.4,29.9
4.23333333333333,11.795970866861,24.8595527785222,1.02126566749698,0.0293932898531006,4,11.3666666666667,29.9
4.26666666666667,11.7958916273818,24.8940744550047,1.04991848755658,0.0286528200596012,4,11.3333333333333,29.9
4.3,11.795808642534,24.9295389171835,1.07783534703026,0.0279168594736801,4,11.3,29.9
4.33333333333333,11.7957223769524,24.9659218036205,1.10502708303227,0.0271917360020137,4,11.2666666666667,29.9
4.36666666666667,11.7956332913842,25.0031991920655,1.13150879907218,0.0264817160399058,4,11.2333333333333,29.9
4.4,11.7955418183948,25.0413477866274,1.15730601040845,0.025797211336267,4,11.2,29.9
4.43333333333333,11.7954483389231,25.0803455028161,1.18246347711953,0.0251574667110852,4,11.1666666666667,29.9
4.46666666666667,11.7953531615482,25.1201717312278,1.20702264347313,0.0245591663535993,4,11.1333333333333,29.9
4.5,11.7952565058897,25.1608071262529,1.23101831062206,0.0239956671489319,4,11.1,29.9
4.53333333333333,11.7951584908722,25.2022334116445,1.25448016846632,0.023461857844258,4,11.0666666666667,29.9
4.56666666666667,11.7950591286748,25.244433230611,1.27743393930716,0.0229537708408363,4,11.0333333333333,29.9
4.6,11.7949583248872,25.2873900291115,1.29990223547739,0.0224682961702276,4,11,29.9
4.63333333333333,11.7948558850116,25.3310879639848,1.32190520534058,0.0220029698631956,4,10.9666666666667,29.9
4.66666666666667,11.7947515270161,25.3755118297203,1.34346102186283,0.021555816522244,4,10.9333333333333,29.9
4.7,11.7946452791321,25.4203009064164,1.34383009011664,0.000369068253811333,2,10.9,29.9
4.73333333333333,11.7945376568309,25.4646642595856,1.31794686262607,-0.0258832274905647,3,10.8666666666667,29.9
4.76666666666667,11.7944292974234,25.5078170148769,1.27123564106324,-0.0467112215628285,3,10.8333333333333,29.9
4.8,11.7943210195271,25.549069264131,1.20396571856494,-0.0672699224982993,3,10.8,29.9
4.83333333333333,11.7942142139727,25.5877694701791,1.11816929833328,-0.0857964202316681,3,10.7666666666667,29.9
4.86666666666667,11.7941108425379,25.6233059582673,1.01422078312685,-0.103948515206426,3,10.7333333333333,29.9
4.9,11.7940132359465,25.655196523937,0.899504663764472,-0.114716119362379,3,10.7,29.9
4.93333333333333,11.7939234434268,25.68314744087,0.777910722661289,-0.121593941103183,3,10.6666666666667,29.9
4.96666666666667,11.7938432629724,25.7069609570333,0.651323530930191,-0.126587191731098,3,10.6333333333333,29.9
5,11.7937741880929,25.7264443570289,0.518221941613366,-0.133101589316825,3,10.6,29.9
5.03333333333333,11.793717335385,25.741442732299,0.382387041378238,-0.135834900235128,3,10.5666666666667,29.9
5.06666666666667,11.7936734425072,25.7518674258738,0.244047117575434,-0.138339923802804,3,10.5333333333333,29.9
5.1,11.7936428801904,25.7577206584535,0.108770546176566,-0.135276571398868,3,10.5,29.9
5.13333333333333,11.7936259287239,25.7589420853298,0.0516577859580209,-0.0571127602185449,3,10.4666666666667,29.9
5.16666666666667,11.7936201518822,25.7572781306034,0.0125720303695161,-0.0390857555885049,3,10.4333333333333,29.9
5.2,11.7936201518822,25.7572781306034,0.010762668655661,-0.00180936171385503,5,10.4,29.9
5.23333333333333,11.7936201518822,25.7572781306034,0.00791453070441107,-0.00284813795124996,5,10.3666666666667,29.9
5.26666666666667,11.7936201518822,25.7572781306034,0.00420846215246,-0.00370606855195107,5,10.3333333333333,29.9
5.3,11.7936201518822,25.7572781306034,8.26921243960253e-05,-0.00412577002806397,5,10.3,29.9
5.33333333333333,11.7936201518822,25.7572781306034,0.00463142472004629,0.00454873259565027,5,10.2666666666667,29.9
5.36666666666667,11.7936201518822,25.7572781306034,0.00909264773631294,0.00446122301626665,5,10.2333333333333,29.9
5.4,11.7936201518822,25.7572781306034,0.0131374719854484,0.00404482424913541,5,10.2,29.9
5.43333333333333,11.7936201518822,25.7572781306034,0.0164813738659939,0.00334390188054552,5,10.1666666666667,29.9
5.46666666666667,11.7936201518822,25.7572781306034,0.0189052357035729,0.00242386183757905,5,10.1333333333333,29.9
5.5,11.7936201518822,25.7572781306034,0.0202685295776445,0.00136329387407158,5,10.1,29.9
5.53333333333333,11.7936201518822,25.7572781306034,0.0205146320393027,0.000246102461658203,5,10.0666666666667,29.9
5.56666666666667,11.7936201518822,25.7572781306034,0.0196688657181383,-0.000845766321164385,5,10.0333333333333,29.9
5.6,11.7936201518822,25.7572781306034,0.017830336209052,-0.00183852950908633,5,10,29.9
5.63333333333333,11.7936201518822,25.7572781306034,0.0151589555191298,-0.0026713806899222,5,9.96666666666667,29.9
5.66666666666667,11.7936201518822,25.7572781306034,0.011859216203477,-0.00329973931565279,5,9.93333333333333,29.9
5.7,11.7936201518822,25.7572781306034,0.0081623133522922,-0.0036969028511848,5,9.9,29.9
5.73333333333333,11.7936201518822,25.7572781306034,0.0043081233709487,-0.0038541899813435,5,9.86666666666667,29.9
5.76666666666667,11.7936201518822,25.7572781306034,0.000528363306802184,-0.00377976006414651,5,9.83333333333334,29.9
5.8,11.7936201518822,25.7572781306034,0.00296800025725731,0.00243963695045512,5,9.8,29.9
5.83333333333333,11.7936201518822,25.7572781306034,0.00600631983859621,0.0030383195813389,5,9.76666666666667,29.9
5.86666666666667,11.7936201518822,25.7572781306034,0.00845435097715831,0.0024480311385621,5,9.73333333333333,29.9
5.9,11.7936201518822,25.7572781306034,0.0102266905479249,0.00177233957076655,5,9.7,29.9
5.93333333333333,11.7936201518822,25.7572781306034,0.0112856809073706,0.00105899035944577,5,9.66666666666667,29.9
5.96666666666667,11.7936201518822,25.7572781306034,0.01163911984982,0.000353438942449378,5,9.63333333333333,29.9
6,11.7936201518822,25.7572781306034,0.011335291438111,-0.000303828411709051,5,9.6,29.9
6.03333333333333,11.7936201518822,25.7572781306034,0.010455949833289,-0.000879341604821917,5,9.56666666666667,29.9
6.06666666666667,11.7936201518822,25.7572781306034,0.00910794730619085,-0.00134800252709819,5,9.53333333333333,29.9
6.1,11.7936201518822,25.7572781306034,0.00741420262222201,-0.00169374468396884,5,9.5,29.9
6.13333333333333,11.7936201518822,25.7572781306034,0.00550466398363267,-0.00190953863858934,5,9.46666666666667,29.9
6.16666666666667,11.7936201518822,25.7572781306034,0.0035078408831053,-0.00199682310052737,5,9.43333333333333,29.9
6.2,11.7936201518822,25.7572781306034,0.00154337198860089,-0.00196446889450441,5,9.4,29.9
6.23333333333333,11.7936201518822,25.7572781306034,0.000284027682035984,-0.00125934430656491,5,9.36666666666667,29.9
6.26666666666667,11.7936201518822,25.7572781306034,0.00188902716188968,0.0016049994798537,5,9.33333333333333,29.9
6.3,11.7936201518822,25.7572781306034,0.00320846143273607,0.00131943427084639,5,9.3,29.9
6.33333333333333,11.7936201518822,25.7572781306034,0.00420246490114693,0.00099400346841086,5,9.26666666666667,29.9
6.36666666666667,11.7936201518822,25.7572781306034,0.00485408576642422,0.000651620865277287,5,9.23333333333333,29.9
