Time,x_ego,y_ego,velocity,acceleration,action,x_ped,y_ped
0,11.8,15.9,7,0,1,15.5,29.9
0.0333333333333333,11.7999876301782,16.1332703793377,6.99615585513555,-0.00384414486444662,1,15.4502170138889,29.9
0.0666666666666667,11.7999102321224,16.3664065965936,6.99197030599603,-0.0041855491395193,1,15.4008680555556,29.9
0.1,11.7997259152537,16.5994007353174,6.98769783847073,-0.00427246752530763,1,15.351953125,29.9
0.133333333333333,11.7994129568164,16.8322536965622,6.98350362997697,-0.00419420849376095,1,15.3034722222222,29.9
0.166666666666667,11.7989637810062,17.0649676134357,6.97936542352167,-0.00413820645529128,1,15.2554253472222,29.9
0.2,11.7983795639136,17.2975439917534,6.97526705636908,-0.00409836715259448,1,15.2078125,29.9
0.233333333333333,11.7976661006528,17.5299838954292,6.9711970005079,-0.00407005586118103,1,15.1606336805556,29.9
0.266666666666667,11.7968310711258,17.7622880806276,6.96714716173753,-0.00404983877036891,1,15.1138888888889,29.9
0.3,11.7958825068686,17.9944570903903,6.9631118988232,-0.00403526291433032,1,15.067578125,29.9
0.333333333333333,11.7948280999744,18.2264913200289,6.95908727070063,-0.00402462812256754,1,15.0217013888889,29.9
0.366666666666667,11.793674977544,18.4583910617784,6.95507049810547,-0.00401677259516031,1,14.9762586805556,29.9
0.4,11.7924296429599,18.6901565350835,6.95105959974871,-0.00401089835676505,1,14.93125,29.9
0.433333333333333,11.7910979057185,18.9217879069641,6.94705315400475,-0.00400644574395592,1,14.8866753472222,29.9
0.466666666666667,11.7896847397806,19.1532853055113,6.94305014242949,-0.00400301157526339,1,14.8425347222222,29.9
0.5,11.7881940968969,19.3846488287008,6.93904984279813,-0.00400029963135484,1,14.798828125,29.9
0.533333333333333,11.7866287438614,19.6158785501886,6.93505175093586,-0.00399809186227085,1,14.7555555555556,29.9
0.566666666666667,11.7849901937803,19.8469745233708,6.93105551995519,-0.00399623098067092,1,14.7127170138889,29.9
0.6,11.783279610416,20.0779367890682,6.92706075425954,-0.00399476569564605,1,14.6703125,29.9
0.633333333333333,11.781500701886,20.3087653950783,6.92306709728171,-0.00399365697782983,1,14.6283420138889,29.9
0.666666666666667,11.7796592134703,20.5394604001994,6.9190743756253,-0.00399272165641307,1,14.5868055555556,29.9
0.7,11.7777628838375,20.7700218790287,6.91508239536417,-0.00399198026113545,1,14.545703125,29.9
0.733333333333333,11.7758226051003,21.0004499333597,6.91109115351326,-0.00399124185090471,1,14.5050347222222,29.9
0.766666666666667,11.7738486991538,21.2307446706469,6.90710081910449,-0.0039903344087735,1,14.4648003472222,29.9
0.8,11.7718494667655,21.4609058280053,6.90308980963711,-0.00401100946737998,1,14.425,29.9
0.833333333333333,11.7698310732178,21.6906159437342,6.88004978175762,-0.0230400278794844,3,14.3856336805556,29.9
0.866666666666667,11.767798416099,21.9189526535429,6.82069711920162,-0.0593526625560008,3,14.3467013888889,29.9
0.9,11.7657455800816,22.1449645762775,6.74057973170229,-0.0801173874993308,3,14.308203125,29.9
0.933333333333333,11.7636589800999,22.3680462897425,6.64491139025658,-0.0956683414457151,3,14.2701388888889,29.9
0.966666666666667,11.7615228867433,22.5876215175132,6.53022958723912,-0.114681803017456,3,14.2325086805556,29.9
1,11.7593217590518,22.8030563084025,6.39653800411265,-0.13369158312647,3,14.1953125,29.9
1.03333333333333,11.7570500190879,23.0136304169018,6.23865184254347,-0.157886161569175,3,14.1585503472222,29.9
1.06666666666667,11.7547099410752,23.2189409710392,6.0807930856586,-0.157858756884871,3,14.1222222222222,29.9
1.1,11.7523116427555,23.4190466793145,5.92642815341323,-0.15436493224537,3,14.086328125,29.9
1.13333333333333,11.7498702279157,23.614006334795,5.77209097385419,-0.154337179559048,3,14.0508680555556,29.9
1.16666666666667,11.7474019920814,23.8037632358375,5.61431546213993,-0.157775511714259,3,14.0158420138889,29.9
1.2,11.7449279965491,23.9879435726548,5.43753731004901,-0.176778152090914,3,13.98125,29.9
1.23333333333333,11.7424714361914,24.1660297498589,5.2486905831244,-0.188846726924613,3,13.9470920138889,29.9
1.26666666666667,11.740052066438,24.337619392838,5.04775514807249,-0.200935435051912,3,13.9133680555556,29.9
1.3,11.7376858764684,24.5024253297666,4.84166470270184,-0.206090445370644,3,13.9133680555556,29.9
1.33333333333333,11.7353860749336,24.6602181713545,4.62695419115449,-0.214710511547358,3,13.9133680555556,29.9
1.36666666666667,11.7331632080315,24.8108263025461,4.4105569176481,-0.216397273506387,3,13.9133680555556,29.9
1.4,11.7310252215215,24.9541349229841,4.1889253009329,-0.221631616715204,3,13.9133680555556,29.9
1.43333333333333,11.7289778199837,25.0900548437236,3.96720614344329,-0.221719157489605,3,13.9133680555556,29.9
1.46666666666667,11.727023831768,25.2185840197935,3.7454466834697,-0.221759459973593,3,13.9133680555556,29.9
1.5,11.7251645147512,25.3397217079658,3.52368064975139,-0.221766033718311,3,13.9133680555556,29.9
1.53333333333333,11.7234000189875,25.4534680905215,3.30193202455406,-0.221748625197327,3,13.9133680555556,29.9
1.56666666666667,11.7217299856369,25.5598240092571,3.08021773870052,-0.221714285853543,3,13.9133680555556,29.9
1.6,11.7201541944576,25.6587907780008,2.85854960946239,-0.221668129238125,3,13.9133680555556,29.9
1.63333333333333,11.7186731516423,25.7503700502586,2.63693574223871,-0.221613867223678,3,13.9133680555556,29.9
1.66666666666667,11.717288515667,25.8345637247951,2.41538155413874,-0.221554188099973,3,13.9133680555556,29.9
1.7,11.7160032526521,25.9113739338454,2.19389875024749,-0.221482803891254,3,13.9133680555556,29.9
1.73333333333333,11.714821237127,25.980812272362,1.97336900795932,-0.220529742288162,3,13.9133680555556,29.9
1.76666666666667,11.7137461350724,26.0429431155813,1.75558818621214,-0.217780821747181,3,13.9133680555556,29.9
1.8,11.7127810614836,26.0978705599744,1.54117037510906,-0.21441781110308,3,13.9133680555556,29.9
1.83333333333333,11.711928546146,26.1457110921839,1.33035331241157,-0.210817062697491,3,13.9133680555556,29.9
1.86666666666667,11.7111903682091,26.1865872735452,1.12327074940651,-0.207082563005065,3,13.9133680555556,29.9
1.9,11.7105674884545,26.2206254334958,0.92005513608644,-0.203215613320069,3,13.9133680555556,29.9
1.93333333333333,11.7100600200602,26.2479590579962,0.720964069599616,-0.199091066486824,3,13.9133680555556,29.9
1.96666666666667,11.7096673631415,26.2687260263521,0.525991579985646,-0.19497248961397,3,13.9133680555556,29.9
2,11.7093883941748,26.2830646249639,0.335226122141268,-0.190765457844378,3,13.9133680555556,29.9
2.03333333333333,11.7092215733579,26.2911158957364,0.148698121534458,-0.18652800060681,3,13.9133680555556,29.9
2.06666666666667,11.7091682228369,26.2928070807899,0.0681099718481846,-0.0805881496862735,3,13.9133680555556,29.9
2.1,11.7091936428149,26.290538172259,0.00204496863864413,-0.0660650032095405,3,13.9133680555556,29.9
2.13333333333333,11.7091936428149,26.290538172259,0.00264215607914642,0.000597187440502285,5,13.9133680555556,29.9
2.16666666666667,11.7091936428149,26.290538172259,0.00402367476991957,0.00138151869077316,5,13.9133680555556,29.9
2.2,11.7091936428149,26.290538172259,0.00606027695613936,0.00203660218621979,5,13.9133680555556,29.9
2.23333333333333,11.7091936428149,26.290538172259,0.00853153953512017,0.00247126257898081,5,13.9133680555556,29.9
2.26666666666667,11.7091936428149,26.290538172259,0.0111646809804659,0.00263314144534578,5,13.9133680555556,29.9
2.3,11.7091936428149,26.290538172259,0.0136719257999952,0.00250724481952922,5,13.9133680555556,29.9
2.33333333333333,11.7091936428149,26.290538172259,0.0157834586286937,0.00211153282869854,5,13.9133680555556,29.9
2.36666666666667,11.7091936428149,26.290538172259,0.0172738630956786,0.00149040446698486,5,13.9133680555556,29.9
2.4,11.7091936428149,26.290538172259,0.0179808110564911,0.000706947960812523,5,13.9133680555556,29.9
2.43333333333333,11.7091936428149,26.290538172259,0.0178155881724129,-0.000165222884078137,5,13.9133680555556,29.9
2.46666666666667,11.7091936428149,26.290538172259,0.0167657596639793,-0.00104982850843361,5,13.9133680555556,29.9
2.5,11.7091936428149,26.290538172259,0.0148908590675579,-0.0018749005964214,5,13.9133680555556,29.9
2.53333333333333,11.7091936428149,26.290538172259,0.0123124027293384,-0.00257845633821958,5,13.9133680555556,29.9
2.56666666666667,11.7091936428149,26.290538172259,0.00919978814172466,-0.00311261458761369,5,13.9133680555556,29.9
2.6,11.7091936428149,26.290538172259,0.00575373237866193,-0.00344605576306273,5,13.9133680555556,29.9
2.63333333333333,11.7091936428149,26.290538172259,0.00218886528207765,-0.00356486709658427,5,13.9133680555556,29.9
2.66666666666667,11.7091936428149,26.290538172259,0.00128306458199816,-0.00090580070007949,5,13.9133680555556,29.9
2.7,11.7091936428149,26.290538172259,0.00446815576931198,0.00318509118731382,5,13.9133680555556,29.9
2.73333333333333,11.7091936428149,26.290538172259,0.00720257404997459,0.0027344182806626,5,13.9133680555556,29.9
2.76666666666667,11.7091936428149,26.290538172259,0.00936143248541786,0.00215885843544327,5,13.9133680555556,29.9
2.8,11.7091936428149,26.290538172259,0.0108640588565908,0.00150262637117299,5,13.9133680555556,29.9
2.83333333333333,11.7091936428149,26.290538172259,0.0116756749327684,0.000811616076177525,5,13.9133680555556,29.9
2.86666666666667,11.7091936428149,26.290538172259,0.0118057670202871,0.000130092087518737,5,13.9133680555556,29.9
2.9,11.7091936428149,26.290538172259,0.0113036279507951,-0.000502139069492048,5,13.9133680555556,29.9
2.93333333333333,11.7091936428149,26.290538172259,0.0102516906888181,-0.00105193726197701,5,13.9133680555556,29.9
2.96666666666667,11.7091936428149,26.290538172259,0.00875735177284101,-0.00149433891597705,5,13.9133680555556,29.9
3,11.7091936428149,26.290538172259,0.0069440020567233,-0.00181334971611771,5,13.9133680555556,29.9
3.03333333333333,11.7091936428149,26.290538172259,0.00494194948868833,-0.00200205256803497,5,13.9133680555556,29.9
3.06666666666667,11.7091936428149,26.290538172259,0.00287984334640556,-0.00206210614228277,5,13.9133680555556,29.9
3.1,11.7091936428149,26.290538172259,0.000877102400061067,-0.0020027409463445,5,13.9133680555556,29.9
3.13333333333333,11.7091936428149,26.290538172259,0.000962277545657156,8.51751455960884e-05,5,13.9133680555556,29.9
3.16666666666667,11.7091936428149,26.290538172259,0.00255429709767592,0.00159201955201876,5,13.9133680555556,29.9
3.2,11.7091936428149,26.290538172259,0.00383780240888233,0.00128350531120641,5,13.9133680555556,29.9
3.23333333333333,11.7091936428149,26.290538172259,0.00477562880789582,0.000937826399013492,5,13.9133680555556,29.9
3.26666666666667,11.7091936428149,26.290538172259,0.00535416477281928,0.000578535964923461,5,13.9133680555556,29.9
3.3,11.7091936428149,26.290538172259,0.00558154731581862,0.000227382542999345,5,13.9133680555556,29.9
3.33333333333333,11.7091936428149,26.290538172259,0.00548476058158951,-9.67867342291156e-05,5,13.9133680555556,29.9
3.36666666666667,11.7091936428149,26.290538172259,0.00510594503113638,-0.000378815550453129,5,13.9133680555556,29.9
3.4,11.7091936428149,26.290538172259,0.00449823603373398,-0.000607708997402404,5,13.9133680555556,29.9
3.43333333333333,11.7091936428149,26.290538172259,0.00372144049617739,-0.000776795537556585,5,13.9133680555556,29.9
3.46666666666667,11.7091936428149,26.290538172259,0.0028378318493335,-0.000883608646843892,5,13.9133680555556,29.9
3.5,11.7091936428149,26.290538172259,0.00190830149691294,-0.000929530352420558,5,13.9133680555556,29.9
3.53333333333333,11.7091936428149,26.290538172259,0.000989053231302618,-0.000919248265610324,5,13.9133680555556,29.9
3.56666666666667,11.7091936428149,26.290538172259,0.000128970634358868,-0.000860082596943749,5,13.9133680555556,29.9
3.6,11.7091936428149,26.290538172259,0.000632269702162649,0.00050329906780378,5,13.9133680555556,29.9
3.63333333333333,11.7091936428149,26.290538172259,0.00126532052211589,0.000633050819953241,5,13.9133680555556,29.9
3.66666666666667,11.7091936428149,26.290538172259,0.00175155148881183,0.000486230966695941,5,13.9133680555556,29.9
3.7,11.7091936428149,26.290538172259,0.00208277184222232,0.000331220353410487,5,13.9133680555556,29.9
3.73333333333333,11.7091936428149,26.290538172259,0.0022603886201304,0.000177616777908085,5,13.9133680555556,29.9
3.76666666666667,11.7091936428149,26.290538172259,0.0021955090524289,-6.4879567701499e-05,5,13.9133680555556,29.9
3.8,11.7091848068631,26.2911462145958,0.0344733290032121,0.0322778199507832,4,13.9133680555556,29.9
3.83333333333333,11.7091557339144,26.293146757738,0.0855431766365287,0.0510698476333166,4,13.9133680555556,29.9
3.86666666666667,11.7091020299018,26.2968404006743,0.135969656438495,0.0504264798019664,4,13.9133680555556,29.9
3.9,11.709024018486,26.3021999348908,0.185464141829556,0.0494944853910609,4,13.9133680555556,29.9
3.93333333333333,11.7089220643623,26.3091907703803,0.233840279542568,0.0483761377130117,4,13.9133680555556,29.9
3.96666666666667,11.7087965148819,26.3177737347199,0.281018489098362,0.0471782095557942,4,13.9133680555556,29.9
4,11.7086476212153,26.3279095751592,0.327049040841683,0.0460305517433213,4,13.9133680555556,29.9
4.03333333333333,11.7084755003231,26.3395609949321,0.371985127607918,0.0449360867662352,4,13.9133680555556,29.9
4.06666666666667,11.7082801366814,26.3526923347302,0.41586958380809,0.043884456200172,4,13.9133680555556,29.9
4.1,11.7080613900134,26.3672692563667,0.458738098843925,0.0428685150358353,4,13.9133680555556,29.9
4.13333333333333,11.7078190095063,26.3832584161765,0.500610665040026,0.0418725661961005,4,13.9133680555556,29.9
4.16666666666667,11.707552648171,26.4006266353974,0.541483420642745,0.0408727556027191,4,13.9133680555556,29.9
4.2,11.7072618450681,26.4193406196247,0.581357891633561,0.0398744709908156,4,13.9133680555556,29.9
4.23333333333333,11.706946066297,26.439367201116,0.620242361698959,0.0388844700653979,4,13.9133680555556,29.9
4.26666666666667,11.7066046677697,26.4606735311005,0.658149647899657,0.0379072862006981,4,13.9133680555556,29.9
4.3,11.7062368937958,26.4832272221477,0.695096984591476,0.0369473366918189,4,13.9133680555556,29.9
4.33333333333333,11.7058418948169,26.5069968309921,0.73112998208877,0.0360329974972946,4,13.9133680555556,29.9
4.36666666666667,11.7054187365538,26.5319528912872,0.766313035591032,0.0351830535022623,4,13.9133680555556,29.9
4.4,11.704966433237,26.5580679183968,0.800698960509635,0.0343859249186023,4,13.9133680555556,29.9
4.43333333333333,11.7044839808292,26.5853161803619,0.834349438095425,0.0336504775857904,4,13.9133680555556,29.9
4.46666666666667,11.7039703284508,26.6136781251146,0.867686720042482,0.0333372819470574,4,13.9133680555556,29.9
4.5,11.7034241243575,26.6431619133576,0.901963926134229,0.0342772060917467,4,13.9133680555556,29.9
4.53333333333333,11.7028434768227,26.6738288589017,0.939018291001761,0.0370543648675319,4,13.9133680555556,29.9
4.56666666666667,11.7022257038387,26.70580164607,0.980612716305764,0.0415944253040034,4,13.9133680555556,29.9
4.6,11.7015673567671,26.7392567878034,1.02820184317717,0.0475891268714052,4,13.9133680555556,29.9
4.63333333333333,11.7008643720341,26.7744140452942,1.08293980001477,0.0547379568376007,4,13.9133680555556,29.9
4.66666666666667,11.7001123460573,26.8115271972446,1.14570361869354,0.0627638186787718,4,13.9133680555556,29.9
4.7,11.6993066067699,26.8508727516002,1.21695962075428,0.0712560020607373,4,13.9133680555556,29.9
4.73333333333333,11.6984421044488,26.8927362151673,1.29680973336217,0.0798501126078872,4,13.9133680555556,29.9
4.76666666666667,11.697513489965,26.9374015488326,1.38505418034137,0.088244446979201,4,13.9133680555556,29.9
4.8,11.6965146952616,26.9851402229436,1.48113733130654,0.0960831509651725,4,13.9133680555556,29.9
4.83333333333333,11.6954392979343,27.0362001238036,1.58423940340925,0.103102072102706,4,13.9133680555556,29.9
4.86666666666667,11.6942797630995,27.0908003525523,1.69347219389647,0.109232790487222,4,13.9133680555556,29.9
4.9,11.6930272039548,27.1491301696336,1.80794139437989,0.114469200483425,4,13.9133680555556,29.9
4.93333333333333,11.6916715608363,27.2113493358205,1.92677254503325,0.11883115065336,4,13.9133680555556,29.9
4.96666666666667,11.6902007102047,27.2775874307221,2.04899790015845,0.122225355125194,4,13.9133680555556,29.9
5,11.6886012961438,27.3479399315576,2.17359218111636,0.124594280957917,4,13.9133680555556,29.9
5.03333333333333,11.6868598687159,27.4224706198117,2.29968790626377,0.12609572514741,4,13.9133680555556,29.9
5.06666666666667,11.6849628808675,27.5012168215467,2.42656128848801,0.126873382224233,4,13.9133680555556,29.9
5.1,11.6828982851607,27.5841937955879,2.55360928966941,0.127048001181401,4,13.9133680555556,29.9
5.13333333333333,11.6806574928224,27.6713991549369,2.68039724636257,0.126787956693159,4,13.9133680555556,29.9
5.16666666666667,11.6782360738722,27.7628202956096,2.80672346282777,0.126326216465199,4,13.9133680555556,29.9
5.2,11.675633213504,27.858439903843,2.93249370843542,0.125770245607651,4,13.9133680555556,29.9
5.23333333333333,11.6728505994233,27.9582391653112,3.05770630611588,0.125212597680461,4,13.9133680555556,29.9
5.26666666666667,11.6698911691678,28.0622004437162,3.18242579312476,0.124719487008884,4,13.9133680555556,29.9
5.3,11.6667579150728,28.1703090219316,3.30675841059007,0.12433261746531,4,13.9133680555556,29.9
5.33333333333333,11.6634529007646,28.2825533593159,3.4307644707212,0.124006060131126,4,13.9133680555556,29.9
5.36666666666667,11.6599774647943,28.398922208855,3.55442059975825,0.123656129037056,4,13.9133680555556,29.9
5.4,11.6563349377767,28.5194037617251,3.67771803931863,0.123297439560377,4,13.9133680555556,29.9
5.43333333333333,11.6525304553504,28.643986334272,3.80066726991732,0.122949230598688,4,13.9133680555556,29.9
5.46666666666667,11.6485699217505,28.772658663307,3.92327585522976,0.122608585312437,4,13.9133680555556,29.9
5.5,11.6444591621798,28.9054093474791,4.04552528818148,0.122249432951721,4,13.9133680555556,29.9
5.53333333333333,11.6402033462978,29.0422258219962,4.16736527826517,0.121839990083693,4,13.9133680555556,29.9
5.56666666666667,11.6358067053997,29.1830931033355,4.28868979798876,0.121324519723586,4,13.9133680555556,29.9
5.6,11.6312725610859,29.3279906296943,4.40928298317943,0.12059318519067,4,13.9133680555556,29.9
5.63333333333333,11.6266029895133,29.4768909076274,4.52896659966842,0.119683616488989,4,13.9133680555556,29.9
5.66666666666667,11.6217966312018,29.6297614495213,4.64762197968866,0.118655380020244,4,13.9133680555556,29.9
5.7,11.6168471518117,29.7865663578065,4.76517100252297,0.117549022834308,4,13.9133680555556,29.9
5.73333333333333,11.6117445008949,29.9472675798894,4.8815682412053,0.11639723868233,4,13.9133680555556,29.9
5.76666666666667,11.6064766986621,30.111825903434,4.99679345313286,0.115225211927556,4,13.9133680555556,29.9
5.8,11.6010319053848,30.2802017801976,5.11084450864149,0.114051055508636,4,13.9133680555556,29.9
5.83333333333333,11.5954015779616,30.4523557901398,5.22372331322036,0.112878804578869,4,13.9133680555556,29.9
5.86666666666667,11.5895809629489,30.6282484271096,5.33540547765677,0.111682164436413,4,13.9133680555556,29.9
5.9,11.5835685093298,30.80783711844,5.4456977561374,0.110292278480625,4,13.9133680555556,29.9
5.93333333333333,11.5773666276421,30.9910726945383,5.55449890054815,0.108801144410754,4,13.9133680555556,29.9
5.96666666666667,11.5709844880506,31.1779077252313,5.66190592090683,0.107407020358681,4,13.9133680555556,29.9
6,11.5644352147194,31.3682957651929,5.76789997104008,0.105994050133246,4,13.9133680555556,29.9
6.03333333333333,11.5577354725051,31.5621907975062,5.87251950522668,0.104619534186599,4,13.9133680555556,29.9
6.06666666666667,11.550901686137,31.7595480913609,5.97579586414639,0.103276358919712,4,13.9133680555556,29.9
6.1,11.5439480860939,31.9603249319272,6.07785597212967,0.102060107983279,4,13.9133680555556,29.9
6.13333333333333,11.5368834175571,32.1644854007063,6.17896569939073,0.101109727261064,4,13.9133680555556,29.9
6.16666666666667,11.5297090314987,32.3720009300526,6.27927054855214,0.100304849161411,4,13.9133680555556,29.9
