Time,x_ego,y_ego,velocity,acceleration,action,x_ped,y_ped
0,11.8,8.9,7,0,1,15.5,29.9
0.0333333333333333,11.8000008865857,9.13327037939402,6.99615577991841,-0.0038442200815938,1,15.5,29.9
0.0666666666666667,11.8000064339571,9.36640659879987,6.99196947538242,-0.00418630453598645,1,15.5,29.9
0.1,11.8000196445433,9.59940075517657,6.98769500183712,-0.00427447354529598,1,15.5,29.9
0.133333333333333,11.8000420752732,9.83225378482839,6.983497685232,-0.0041973166051239,1,15.5,29.9
0.166666666666667,11.8000742691125,10.0649678788595,6.97935590372366,-0.00414178150833511,1,15.5,29.9
0.2,11.8001161417479,10.2975446154427,6.97525416149575,-0.00410174222791504,1,15.5,29.9
0.233333333333333,11.800167277807,10.5299851335513,6.97118135398893,-0.00407280750682126,1,15.5,29.9
0.266666666666667,11.8002271268323,10.762290257465,6.96712952401992,-0.00405182996900777,1,15.5,29.9
0.3,11.8002951131701,10.9944605859838,6.96309296986959,-0.00403655415032667,1,15.5,29.9
0.333333333333333,11.8003706855026,11.2264965563484,6.95906760593838,-0.00402536393121,1,15.5,29.9
0.366666666666667,11.800453333014,11.4583984900337,6.95505050461505,-0.00401710132333033,1,15.5,29.9
0.4,11.8005425895977,11.6901666255576,6.95103956806592,-0.0040109365491352,1,15.5,29.9
0.433333333333333,11.8006380388846,11.9218011419842,6.94703329309286,-0.0040062749730545,1,15.5,29.9
0.466666666666667,11.8007393243935,12.1533021757615,6.94303060262843,-0.00400269046443746,1,15.5,29.9
0.5,11.8008461629098,12.3846698327831,6.93903072494392,-0.0039998776845076,1,15.5,29.9
0.533333333333333,11.8009583561492,12.6159041970285,6.9350331070394,-0.00399761790452224,1,15.5,29.9
0.566666666666667,11.8010757956833,12.8470053367551,6.93103735254493,-0.00399575449446488,1,15.5,29.9
0.6,11.8011984580901,13.0779733089368,6.92704317721728,-0.00399417532765511,1,15.5,29.9
0.633333333333333,11.8013263901629,13.3088081624487,6.9230503770761,-0.00399280014117664,1,15.5,29.9
0.666666666666667,11.8014596866783,13.5395099403537,6.91905880561726,-0.00399157145883855,1,15.5,29.9
0.7,11.8015984649221,13.770078681547,6.9150683575343,-0.00399044808296178,1,15.5,29.9
0.733333333333333,11.8017428405986,14.0005144219374,6.91107895709327,-0.00398940044103302,1,15.5,29.9
0.766666666666667,11.8018929089905,14.2308171952977,6.9070905498238,-0.00398840726946759,1,15.5,29.9
0.8,11.8020487336898,14.4609870338744,6.90310309656705,-0.00398745325674899,1,15.5,29.9
0.833333333333333,11.8022103433814,14.6910239688234,6.89911656919662,-0.00398652737043381,1,15.5,29.9
0.866666666666667,11.8023777355258,14.9209280305202,6.89513094752856,-0.00398562166805316,1,15.5,29.9
0.9,11.8025508846805,15.1506992487795,6.89114621708043,-0.00398473044813574,1,15.5,29.9
0.933333333333333,11.8027297527754,15.3803376530095,6.88716236744151,-0.00398384963891996,1,15.5,29.9
0.966666666666667,11.802914298878,15.6098432723208,6.88317939108863,-0.00398297635287648,1,15.5,29.9
1,11.8031044866627,15.8392161356032,6.87919728253087,-0.00398210855775716,1,15.5,29.9
1.03333333333333,11.8033002886977,16.0684562715811,6.8752160376996,-0.00398124483127749,1,15.5,29.9
1.06666666666667,11.8035016875413,16.2975637088541,6.87123565352146,-0.00398038417814028,1,15.5,29.9
1.1,11.8037086743084,16.5265384759268,6.86725612762607,-0.00397952589538875,1,15.5,29.9
1.13333333333333,11.803921245733,16.7553806012323,6.86327745814979,-0.0039786694762789,1,15.5,29.9
1.16666666666667,11.8041394008096,16.9840901131492,6.85929964360504,-0.00397781454475332,1,15.5,29.9
1.2,11.8043631378995,17.2126670400152,6.85532268279167,-0.00397696081336818,1,15.5,29.9
1.23333333333333,11.8045924528454,17.4411114101361,6.85134657473349,-0.00397610805817994,1,15.5,29.9
1.26666666666667,11.8048273382659,17.6694232517925,6.84737131862881,-0.00397525610467753,1,15.5,29.9
1.3,11.8050677838779,17.8976025932435,6.84339691380888,-0.00397440481993172,1,15.5,29.9
1.33333333333333,11.8053129504648,18.1256494634963,6.83942334884684,-0.00397356496204182,1,15.5,29.9
1.36666666666667,11.8055592532704,18.353563894221,6.83545062185594,-0.0039727269908969,1,15.5,29.9
1.4,11.8058036767347,18.5813459168002,6.83147874448619,-0.00397187736974924,1,15.5,29.9
1.43333333333333,11.8060437648992,18.8089955621972,6.82750771822576,-0.00397102626042756,1,15.5,29.9
1.46666666666667,11.8062753891021,19.03651286302,6.82353755061114,-0.00397016761461799,1,15.5,29.9
1.5,11.8064957733182,19.2638978504358,6.8195682479134,-0.00396930269774565,1,15.5,29.9
1.53333333333333,11.8067038435696,19.4911505536732,6.81559980606882,-0.00396844184458089,1,15.4777777777778,29.9
1.56666666666667,11.8068996372396,19.7182710006147,6.81163221719768,-0.00396758887113968,1,15.4111111111111,29.9
1.6,11.807083829706,19.9452592183738,6.80766547441379,-0.00396674278388964,1,15.3,29.9
1.63333333333333,11.8072574001077,20.1721152337488,6.80369957363741,-0.00396590077637793,1,15.1698412698413,29.9
1.66666666666667,11.8074214224883,20.3988390735131,6.79973451334505,-0.0039650602923631,1,15.0460317460317,29.9
1.7,11.807576950356,20.6254307645658,6.79577029356092,-0.0039642197841312,1,14.9285714285714,29.9
1.73333333333333,11.8077249591128,20.8518903339869,6.79180691492917,-0.00396337863174434,1,14.8174603174603,29.9
1.76666666666667,11.8078663170323,21.0782178090422,6.78784437815872,-0.00396253677045522,1,14.7126984126984,29.9
1.8,11.8080017662628,21.3044132171699,6.78388268380487,-0.00396169435385119,1,14.6142857142857,29.9
1.83333333333333,11.808131906243,21.5304765859622,6.77992183224468,-0.00396085156018433,1,14.5222222222222,29.9
1.86666666666667,11.8082564009922,21.7564079437055,6.77596183498783,-0.00395999725685314,1,14.4365079365079,29.9
1.9,11.8083722013809,21.9822073204888,6.77200269752165,-0.0039591374661736,1,14.3571428571429,29.9
1.93333333333333,11.8084767577229,22.2078747457196,6.76804441283216,-0.00395828468949855,1,14.284126984127,29.9
1.96666666666667,11.8085686532956,22.4334102477458,6.76408697446912,-0.00395743836303986,1,14.2174603174603,29.9
2,11.8086472732301,22.658813854194,6.76013037679587,-0.0039565976732483,1,14.1571428571429,29.9
2.03333333333333,11.8087125105501,22.8840855922724,6.75617461590025,-0.00395576089562155,1,14.1031746031746,29.9
2.06666666666667,11.8087645459141,23.1092254890054,6.75221968986854,-0.00395492603170133,1,14.0555555555556,29.9
2.1,11.8088044825131,23.3342335710353,6.74826557906523,-0.00395411080331343,1,14.0142857142857,29.9
2.13333333333333,11.8088368929542,23.5591098638103,6.74431225908555,-0.00395331997968196,1,13.9793650793651,29.9
2.16666666666667,11.8088693571342,23.783854392465,6.7403597365205,-0.00395252256505074,1,13.9507936507936,29.9
2.2,11.8089100370197,24.0081209387317,6.71563381030858,-0.0247259262119144,3,13.9285714285714,29.9
2.23333333333333,11.8089629620869,24.230525336984,6.62863231140573,-0.0870014989028558,3,13.9126984126984,29.9
2.26666666666667,11.8090264233465,24.4491935140722,6.49146205414739,-0.137170257258341,3,13.9031746031746,29.9
2.3,11.8090967913952,24.6629728558741,6.3353034604651,-0.156158593682285,3,13.9,29.9
2.33333333333333,11.8091666528838,24.8709994157425,6.14629725422452,-0.189006206240585,3,13.9,29.9
2.36666666666667,11.8092225532425,25.0722361220615,5.92791576233839,-0.218381491886132,3,13.9,29.9
2.4,11.8092457198307,25.2661362052091,5.70610564083515,-0.221810121503236,3,13.9,29.9
2.43333333333333,11.8092185805839,25.452643120215,5.48433546740227,-0.221770173432885,3,13.9,29.9
2.46666666666667,11.8091311915924,25.6317581313804,5.26260611880776,-0.221729348594502,3,13.9,29.9
2.5,11.808980726376,25.8034825208878,5.04091719203031,-0.221688926777451,3,13.9,29.9
2.53333333333333,11.808770130053,25.9678175775284,4.81926724764699,-0.221649944383321,3,13.9,29.9
2.56666666666667,11.8085079417134,26.1247645913423,4.59765434520919,-0.221612902437801,3,13.9,29.9
2.6,11.80820473834,26.2743248509652,4.37607666261848,-0.221577682590713,3,13.9,29.9
2.63333333333333,11.8078717107661,26.4164987081728,4.15445172041392,-0.221624942204558,3,13.9,29.9
2.66666666666667,11.8075201613276,26.5512834692579,3.93273743545361,-0.221714284960309,3,13.9,29.9
2.7,11.8071610884993,26.6786771276186,3.71098071849595,-0.221756716957656,3,13.9,29.9
2.73333333333333,11.806804768019,26.7986789815391,3.48921602013686,-0.221764698359092,3,13.9,29.9
2.76666666666667,11.8064603038579,26.9112892565602,3.2674687438685,-0.221747276268367,3,13.9,29.9
2.8,11.8061351811343,27.016508834175,3.04575749715793,-0.22171124671057,3,13.9,29.9
2.83333333333333,11.8058348915452,27.1143390570721,2.8240955819782,-0.221661915179724,3,13.9,29.9
2.86666666666667,11.8055627124912,27.2047815895693,2.60249203772791,-0.221603544250292,3,13.9,29.9
2.9,11.8053197046474,27.28783831787,2.38095246257366,-0.221539575154253,3,13.9,29.9
2.93333333333333,11.8051049614612,27.3635114608016,2.15951819548893,-0.221434267084726,3,13.9,29.9
2.96666666666667,11.804915949031,27.4318180338087,1.9393396859744,-0.220178509514527,3,13.9,29.9
3,11.804748726481,27.4928310574958,1.72207218097317,-0.217267505001234,3,13.9,29.9
3.03333333333333,11.8045995342552,27.5466574161112,1.50820758671685,-0.213864594256315,3,13.9,29.9
3.06666666666667,11.8044654653307,27.5934145664358,1.29796703244101,-0.210240554275846,3,13.9,29.9
3.1,11.8043445990387,27.6332257731465,1.09147459293899,-0.206492439502017,3,13.9,29.9
3.13333333333333,11.8042359358333,27.6662180237123,0.888882796035441,-0.202591796903548,3,13.9,29.9
3.16666666666667,11.8041391999362,27.6925260471031,0.690429249648229,-0.198453546387212,3,13.9,29.9
3.2,11.8040546019482,27.7122876795572,0.496094948720811,-0.194334300927418,3,13.9,29.9
3.23333333333333,11.803982591507,27.7256417843139,0.305985592228149,-0.190109356492662,3,13.9,29.9
3.26666666666667,11.8039236271688,27.732729474539,0.120120805933663,-0.185864786294486,3,13.9,29.9
3.3,11.8038769255981,27.7342612436611,0.0215425806457849,-0.0985782252878781,3,13.9,29.9
3.33333333333333,11.8038384363297,27.7325642244334,0.0749118092521882,0.0533692286064033,4,13.8991319444444,29.9
3.36666666666667,11.8038027352873,27.7300677547263,0.000959980540832202,-0.073951828711356,3,13.8965277777778,29.9
3.4,11.8038027352873,27.7300677547263,0.00165817672983447,0.000698196189002272,5,13.8921875,29.9
3.43333333333333,11.8038027352873,27.7300677547263,0.00319689474619226,0.00153871801635779,5,13.8861111111111,29.9
3.46666666666667,11.8038027352873,27.7300677547263,0.0053611505741793,0.00216425582798704,5,13.8782986111111,29.9
3.5,11.8038027352873,27.7300677547263,0.00787361430530014,0.00251246373112084,5,13.86875,29.9
3.53333333333333,11.8038027352873,27.7300677547263,0.0104330920203787,0.00255947771507858,5,13.8574652777778,29.9
3.56666666666667,11.8038027352873,27.7300677547263,0.0127489855473373,0.00231589352695853,5,13.8444444444444,29.9
3.6,11.8038027352873,27.7300677547263,0.0145695048106266,0.00182051926328933,5,13.8296875,29.9
3.63333333333333,11.8038027352873,27.7300677547263,0.0157022725786415,0.00113276776801494,5,13.8131944444444,29.9
3.66666666666667,11.8038027352873,27.7300677547263,0.0160267849811409,0.000324512402499411,5,13.7949652777778,29.9
3.7,11.8038027352873,27.7300677547263,0.0154989195932956,-0.000527865387845302,5,13.775,29.9
3.73333333333333,11.8038027352873,27.7300677547263,0.0141482783730797,-0.00135064122021597,5,13.7532986111111,29.9
3.76666666666667,11.8038027352873,27.7300677547263,0.0120695933325602,-0.0020786850405195,5,13.7298611111111,29.9
3.8,11.8038027352873,27.7300677547263,0.00940970129981074,-0.00265989203274943,5,13.7046875,29.9
3.83333333333333,11.8038027352873,27.7300677547263,0.00635171607352759,-0.00305798522628315,5,13.6777777777778,29.9
3.86666666666667,11.8038027352873,27.7300677547263,0.00309800758222541,-0.00325370849130218,5,13.6491319444444,29.9
3.9,11.8038027352873,27.7300677547263,0.000146538264132626,-0.00295146931809278,5,13.61875,29.9
3.93333333333333,11.8038027352873,27.7300677547263,0.00318973045387345,0.00304319218974083,5,13.5866319444444,29.9
3.96666666666667,11.8038027352873,27.7300677547263,0.00586479023345499,0.00267505977958154,5,13.5527777777778,29.9
4,11.8038027352873,27.7300677547263,0.00803992474040456,0.00217513450694957,5,13.5171875,29.9
4.03333333333333,11.8038027352873,27.7300677547263,0.00962442343893049,0.00158449869852594,5,13.4798611111111,29.9
4.06666666666667,11.8038027352873,27.7300677547263,0.0105712402539821,0.000946816815051604,5,13.4407986111111,29.9
4.1,11.8038027352873,27.7300677547263,0.0108762821822237,0.00030504192824159,5,13.4,29.9
4.13333333333333,11.8038027352873,27.7300677547263,0.0105748318825065,-0.000301450299717159,5,13.3574652777778,29.9
4.16666666666667,11.8038027352873,27.7300677547263,0.00973568011510436,-0.000839151767402171,5,13.3131944444444,29.9
4.2,11.8038027352873,27.7300677547263,0.00845363184262286,-0.00128204827248149,5,13.2671875,29.9
4.23333333333333,11.8038027352873,27.7300677547263,0.00684107975354162,-0.00161255208908124,5,13.2194444444444,29.9
4.26666666666667,11.8038027352873,27.7300677547263,0.00501931699513614,-0.00182176275840549,5,13.1699652777778,29.9
4.3,11.8038027352873,27.7300677547263,0.00311019576104168,-0.00190912123409446,5,13.11875,29.9
4.33333333333333,11.8038027352873,27.7300677547263,0.0012286405086131,-0.00188155525242858,5,13.0657986111111,29.9
4.36666666666667,11.8038027352873,27.7300677547263,0.000523594854455326,-0.000705045654157772,5,13.0111111111111,29.9
4.4,11.8038027352873,27.7300677547263,0.00206266645082868,0.00153907159637335,5,12.9546875,29.9
4.43333333333333,11.8038027352873,27.7300677547263,0.00332574756948277,0.00126308111865409,5,12.8965277777778,29.9
4.46666666666667,11.8038027352873,27.7300677547263,0.00427249642250598,0.000946748853023215,5,12.8366319444444,29.9
4.5,11.8038027352873,27.7300677547263,0.00488498413718618,0.0006124877146802,5,12.775,29.9
4.53333333333333,11.8038027352873,27.7300677547263,0.00516626895849099,0.000281284821304803,5,12.7116319444444,29.9
4.56666666666667,11.8038027352873,27.7300677547263,0.00513786578547835,-2.84031730126344e-05,5,12.6465277777778,29.9
4.6,11.8038027352873,27.7300677547263,0.00483639911156732,-0.000301466673911031,5,12.5796875,29.9
4.63333333333333,11.8038027352873,27.7300677547263,0.00430974291399962,-0.000526656197567696,5,12.5111111111111,29.9
4.66666666666667,11.8038027352873,27.7300677547263,0.00361294519915502,-0.000696797714844608,5,12.4407986111111,29.9
4.7,11.8038027352873,27.7300677547263,0.00280421099559594,-0.000808734203559073,5,12.36875,29.9
4.73333333333333,11.8038027352873,27.7300677547263,0.00194117955005173,-0.000863031445544211,5,12.2949652777778,29.9
4.76666666666667,11.8038027352873,27.7300677547263,0.00107768363566088,-0.000863495914390854,5,12.2194444444444,29.9
4.8,11.8038027352873,27.7300677547263,0.000261125568928572,-0.000816558066732305,5,12.1421875,29.9
4.83333333333333,11.8038027352873,27.7300677547263,0.000469450158891356,0.000208324589962784,5,12.0631944444444,29.9
4.86666666666667,11.8038027352873,27.7300677547263,0.00108456018834471,0.000615110029453359,5,11.9824652777778,29.9
4.9,11.8038027352873,27.7300677547263,0.00156478134385883,0.000480221155514111,5,11.9,29.9
4.93333333333333,11.8038027352873,27.7300677547263,0.00190060505922973,0.0003358237153709,5,11.8157986111111,29.9
4.96666666666667,11.8038027352873,27.7300677547263,0.00209173773189153,0.000191132672661806,5,11.7298611111111,29.9
5,11.8038027352873,27.7300677547263,0.00214595889470731,5.42211628157775e-05,5,11.6421875,29.9
5.03333333333333,11.8038027352873,27.7300677547263,0.00207766082506403,-6.82980696432799e-05,5,11.5527777777778,29.9
5.06666666666667,11.8038027352873,27.7300677547263,0.00190619592706263,-0.000171464898001404,5,11.4616319444444,29.9
5.1,11.8038027352873,27.7300677547263,0.00165415298530052,-0.000252042941762108,5,11.36875,29.9
5.13333333333333,11.8038027352873,27.7300677547263,0.0013456716011035,-0.000308481384197019,5,11.2741319444444,29.9
5.16666666666667,11.8038027352873,27.7300677547263,0.0010048873929888,-0.000340784208114698,5,11.1777777777778,29.9
5.2,11.8038027352873,27.7300677547263,0.000654580558974656,-0.000350306834014146,5,11.0796875,29.9
5.23333333333333,11.8038027352873,27.7300677547263,0.000315078808126012,-0.000339501750848643,5,10.9798611111111,29.9
5.26666666666667,11.8038027352873,27.7300677547263,3.44398832932176e-06,-0.00031163481979669,5,10.8782986111111,29.9
5.3,11.8038027352873,27.7300677547263,0.000267048724280397,0.000263604735951076,5,10.775,29.9
5.33333333333333,11.8038027352873,27.7300677547263,0.000487148399787056,0.000220099675506659,5,10.6699652777778,29.9
5.36666666666667,11.8038027352873,27.7300677547263,0.000651607171481241,0.000164458771694185,5,10.5631944444444,29.9
5.4,11.8038027352873,27.7300677547263,0.000758936412262121,0.00010732924078088,5,10.4546875,29.9
5.43333333333333,11.8038027352873,27.7300677547263,0.000810984311567483,5.20478993053615e-05,5,10.3444444444444,29.9
5.46666666666667,11.8038027352873,27.7300677547263,0.0008123831548062,1.39884323871724e-06,5,10.2324652777778,29.9
5.5,11.8038027352873,27.7300677547263,0.000769915466481174,-4.24676883250263e-05,5,10.11875,29.9
5.53333333333333,11.8038027352873,27.7300677547263,0.000691846062469313,-7.80694040118606e-05,5,10.0032986111111,29.9
5.56666666666667,11.8038027352873,27.7300677547263,0.000587262508683356,-0.000104583553785957,5,9.88611111111111,29.9
5.6,11.8038027352873,27.7300677547263,0.000465460111613797,-0.000121802397069559,5,9.7671875,29.9
5.63333333333333,11.8038027352873,27.7300677547263,0.00033540000077037,-0.000130060110843427,5,9.64652777777778,29.9
5.66666666666667,11.8038027352873,27.7300677547263,0.000205260713788654,-0.000130139286981716,5,9.52413194444444,29.9
5.7,11.8038027352873,27.7300677547263,8.20955188138738e-05,-0.00012316519497478,5,9.4,29.9
5.73333333333333,11.8038027352873,27.7300677547263,2.84000157895692e-05,-5.36955030243046e-05,5,9.27413194444444,29.9
5.76666666666667,11.8038027352873,27.7300677547263,0.000122012584120955,9.36125683313861e-05,5,9.14652777777778,29.9
5.8,11.8038027352873,27.7300677547263,0.000196035993323046,7.40234092020903e-05,5,9.0171875,29.9
5.83333333333333,11.8038027352873,27.7300677547263,0.00024920894548345,5.31729521604049e-05,5,8.88611111111111,29.9
5.86666666666667,11.8038027352873,27.7300677547263,0.00028158152058969,3.23725751062391e-05,5,8.75329861111111,29.9
5.9,11.8038027352873,27.7300677547263,0.000294327911035596,1.27463904459063e-05,5,8.61875,29.9
5.93333333333333,11.8038027352873,27.7300677547263,0.000289523485185662,-4.80442584993373e-06,5,8.48246527777778,29.9
5.96666666666667,11.8038027352873,27.7300677547263,0.000269903681777811,-1.96198034078507e-05,5,8.34444444444444,29.9
6,11.8038027352873,27.7300677547263,0.000238620751220224,-3.12829305575876e-05,5,8.2046875,29.9
6.03333333333333,11.8038027352873,27.7300677547263,0.000199012181195418,-3.96085700248055e-05,5,8.06319444444445,29.9
6.06666666666667,11.8038027352873,27.7300677547263,0.000154391997636651,-4.46201835587674e-05,5,7.91996527777778,29.9
6.1,11.8038027352873,27.7300677547263,0.000107873237155859,-4.65187604807921e-05,5,7.775,29.9
6.13333333333333,11.8038027352873,27.7300677547263,6.22269445173589e-05,-4.56462926384998e-05,5,7.62829861111111,29.9
6.16666666666667,11.8038027352873,27.7300677547263,1.97802329982743e-05,-4.24467115190846e-05,5,7.47986111111111,29.9
6.2,11.8038027352873,27.7300677547263,1.76466022880047e-05,-2.13363071026966e-06,5,7.3296875,29.9
6.23333333333333,11.8038027352873,27.7300677547263,4.87661027616211e-05,3.11195004736164e-05,5,7.17777777777778,29.9
6.26666666666667,11.8038027352873,27.7300677547263,7.28167146157172e-05,2.40506118540961e-05,5,7.02413194444444,29.9
6.3,11.8038027352873,27.7300677547263,8.95280845066247e-05,1.67113698909074e-05,5,6.86875,29.9
6.33333333333333,11.8038027352873,27.7300677547263,9.90645445505138e-05,9.53646004388917e-06,5,6.71163194444445,29.9
6.36666666666667,11.8038027352873,27.7300677547263,0.000101953083779545,2.88853922903106e-06,5,6.55277777777778,29.9
6.4,11.8038027352873,27.7300677547263,9.90020372742516e-05,-2.95104650529333e-06,5,6.3921875,29.9
