Time,x_ego,y_ego,velocity,acceleration,action,x_ped,y_ped
0,11.8,15.9,7,0,1,15.5,29.9
0.0333333333333333,11.8000008865857,16.133270379394,6.99615577991841,-0.0038442200815938,1,15.5,29.9
0.0666666666666667,11.8000072356924,16.3664065987967,6.9919694780353,-0.0041863018831112,1,15.5,29.9
0.1,11.8000254629288,16.5994007551055,6.98769501968833,-0.00427445834696449,1,15.5,29.9
0.133333333333333,11.8000598408521,16.8322537843532,6.98349773559041,-0.00419728409792075,1,15.5,29.9
0.166666666666667,11.8001123209407,17.0649678770564,6.97935599914855,-0.00414173644186455,1,15.5,29.9
0.2,11.8001833102038,17.297544610521,6.97525430528036,-0.00410169386818726,1,15.5,29.9
0.233333333333333,11.800272316949,17.5299851227112,6.97118154125554,-0.00407276402482282,1,15.5,29.9
0.266666666666667,11.8003784146478,17.7622902369093,6.96712974543776,-0.00405179581777215,1,15.5,29.9
0.3,11.8005005291481,17.9944605510428,6.96309321522642,-0.00403653021134609,1,15.5,29.9
0.333333333333333,11.800637587711,18.226496501658,6.95906786630544,-0.00402534892097872,1,15.5,29.9
0.366666666666667,11.8007885800899,18.4583984097208,6.95505077309321,-0.00401709321223276,1,15.5,29.9
0.4,11.8009525774502,18.6901665134012,6.95103983964882,-0.0040109334443903,1,15.5,29.9
0.433333333333333,11.8011287412614,18.9218009915397,6.94703356420631,-0.00400627544250387,1,15.5,29.9
0.466666666666667,11.8013163380245,19.1533019804404,6.94303087070509,-0.00400269350122073,1,15.5,29.9
0.5,11.8015147618376,19.3846695858881,6.93903098817381,-0.00399988253127681,1,15.5,29.9
0.533333333333333,11.8017235581493,19.6159038917462,6.93503336428443,-0.00399762388938374,1,15.5,29.9
0.566666666666667,11.8019424392127,19.8470049661132,6.93103760333488,-0.00399576094954757,1,15.5,29.9
0.6,11.8021712836628,20.077972865737,6.92704342173907,-0.00399418159580822,1,15.5,29.9
0.633333333333333,11.8024101173075,20.3088076391877,6.92305061610118,-0.00399280563789794,1,15.5,29.9
0.666666666666667,11.80265892227,20.5393069600257,6.90691713064928,-0.0161334854518973,1,15.5,29.9
0.7,11.8029176338988,20.7691533592901,6.88387617734602,-0.0230409533032585,3,15.5,29.9
0.733333333333333,11.8031864323916,20.9983469505496,6.86774929267048,-0.0161268846755416,1,15.5,29.9
0.766666666666667,11.8034656922936,21.2271472581297,6.86027976587552,-0.00746952679495472,1,15.5,29.9
0.8,11.8037556770713,21.4557276699382,6.85455629852558,-0.00572346734994067,1,15.5,29.9
0.833333333333333,11.8040564083422,21.6840595472862,6.84536859371917,-0.0091877048064184,1,15.5,29.9
0.866666666666667,11.8043676974048,21.9119696518743,6.82925094961586,-0.0161176441033026,1,15.5,29.9
0.9,11.8046892267277,22.1392273628549,6.80622604806036,-0.0230249015555,3,15.5,29.9
0.933333333333333,11.8050207498623,22.3657176274038,6.78320514555444,-0.0230209025059187,3,15.5,29.9
0.966666666666667,11.8053621204573,22.59144058282,6.76018849308085,-0.0230166524735909,3,15.5,29.9
1,11.8057133298203,22.816511545914,6.74408648069496,-0.0161020123858897,1,15.5,29.9
1.03333333333333,11.8060743872448,23.0410458194871,6.72798811124661,-0.0160983694483559,1,15.5,29.9
1.06666666666667,11.8064453756464,23.2651877616061,6.72054743052931,-0.00744068071729309,1,15.5,29.9
1.1,11.8068264922988,23.4891398357878,6.71659694324283,-0.00395048728648373,1,15.5,29.9
1.13333333333333,11.8072177768808,23.7129602391674,6.71264815736517,-0.00394878587765835,1,15.5,29.9
1.16666666666667,11.8076192117295,23.9366490240159,6.70870083477244,-0.00394732259272867,1,15.5,29.9
1.2,11.8080307921684,24.1602062355386,6.70475480978631,-0.00394602498613228,1,15.5,29.9
1.23333333333333,11.8084525192182,24.3836319138773,6.70080996458808,-0.0039448451982329,1,15.5,29.9
1.26666666666667,11.8088843941433,24.606926095546,6.69686621121339,-0.003943753374684,1,15.5,29.9
1.3,11.809326415162,24.8300888144603,6.69292347983291,-0.00394273138048273,1,15.5,29.9
1.33333333333333,11.8097785761442,25.053120102673,6.68898171253286,-0.00394176730005658,1,15.5,29.9
1.36666666666667,11.8102408667955,25.2760199909008,6.68504086121317,-0.00394085131968236,1,15.5,29.9
1.4,11.8107132736965,25.4987885088998,6.6811008878588,-0.00393997335437568,1,15.5,29.9
1.43333333333333,11.8111957816095,25.7214256857339,6.6771617654693,-0.00393912238949579,1,15.5,29.9
1.46666666666667,11.8116883746098,25.9439315499663,6.6732234783331,-0.0039382871362017,1,15.5,29.9
1.5,11.8121910368058,26.1663061297978,6.6692860209586,-0.00393745737449969,1,15.5,29.9
1.53333333333333,11.812703752597,26.3885494531652,6.66534939563086,-0.0039366253277402,1,15.5,29.9
1.56666666666667,11.8132257396766,26.6106615493928,6.66141358924403,-0.00393580638682955,1,15.5,29.9
1.6,11.813753698132,26.8326424530929,6.65747860498892,-0.00393498425511485,1,15.5,29.9
1.63333333333333,11.8142849630505,27.0544921979466,6.65354446748678,-0.003934137502136,1,15.5,29.9
1.66666666666667,11.8148181200302,27.2762108151862,6.64961118977408,-0.00393327771270258,1,15.5,29.9
1.7,11.8153526558416,27.4977983341015,6.64567877382322,-0.00393241595086113,1,15.5,29.9
1.73333333333333,11.8158886327646,27.7192547826169,6.6417472139571,-0.00393155986611227,1,15.5,29.9
1.76666666666667,11.816426430202,27.9405801878137,6.63781650070831,-0.00393071324879024,1,15.5,29.9
1.8,11.8169665667883,28.1617745763254,6.63388662400439,-0.00392987670392664,1,15.5,29.9
1.83333333333333,11.8175095948236,28.3828379745935,6.62995757536334,-0.00392904864104704,1,15.5,29.9
1.86666666666667,11.8180560475763,28.6037704090078,6.62602934910792,-0.00392822625541989,1,15.5,29.9
1.9,11.8186064175752,28.8245719059752,6.6221019427064,-0.00392740640152134,1,15.5,29.9
1.93333333333333,11.8191611477916,29.0452424919549,6.61817535640369,-0.00392658630271026,1,15.5,29.9
1.96666666666667,11.8197206244457,29.265782193489,6.61424959236935,-0.00392576403434131,1,15.5,29.9
2,11.8202851672473,29.486191037236,6.61032465363299,-0.00392493873635846,1,15.5,29.9
2.03333333333333,11.8208550182447,29.7064690500084,6.60640054307217,-0.00392411056082054,1,15.5,29.9
2.06666666666667,11.8214303332019,29.926616258803,6.60247726265805,-0.00392328041411716,1,15.5,29.9
2.1,11.8220103793496,30.1466326928071,6.59855480249661,-0.00392246016143716,1,15.5,29.9
2.13333333333333,11.8225917117891,30.3665183880733,6.5946331604387,-0.00392164205791445,1,15.5,29.9
2.16666666666667,11.8231714370628,30.5862733795178,6.59071234599374,-0.00392081444495762,1,15.5,29.9
2.2,11.8237469941959,30.8058977013445,6.58679235865684,-0.00391998733689647,1,15.5,29.9
2.23333333333333,11.8243141557943,31.0253913920158,6.58287320481136,-0.00391915384548369,1,15.5,29.9
2.26666666666667,11.8248692690428,31.2447544884372,6.57895489304181,-0.00391831176955115,1,15.5,29.9
2.3,11.8254071012119,31.4639870312067,6.57503744007136,-0.00391745297045354,1,15.5,29.9
2.33333333333333,11.8259215749768,31.6830890623863,6.57112086197341,-0.00391657809794665,1,15.5,29.9
2.36666666666667,11.8264084430918,31.9020606183585,6.56720516690983,-0.00391569506357659,1,15.5,29.9
2.4,11.826863524109,32.1209017340366,6.56329035229946,-0.00391481461037113,1,15.5,29.9
2.43333333333333,11.8272849078376,32.3396124374396,6.55937638319668,-0.00391396910278541,1,15.5,29.9
2.46666666666667,11.827672843285,32.5581927505814,6.55546322168923,-0.00391316150744814,1,15.5,29.9
2.5,11.8280288763881,32.7766426923255,6.55155084050899,-0.00391238118023818,1,15.5,29.9
2.53333333333333,11.8283551933438,32.9949622805599,6.54763922736698,-0.00391161314201049,1,15.5,29.9
2.56666666666667,11.8286541705407,33.2131515335896,6.54372838244806,-0.00391084491891469,1,15.5,29.9
2.6,11.8289280968509,33.4312104708527,6.53981831328318,-0.00391006916488479,1,15.5,29.9
2.63333333333333,11.8291790204409,33.6491391131551,6.53590903006322,-0.00390928321996142,1,15.5,29.9
2.66666666666667,11.8294086745643,33.8669374826248,6.5320005426515,-0.00390848741172256,1,15.5,29.9
2.7,11.8296184480523,34.0846056025375,6.52809285926401,-0.00390768338748959,1,15.5,29.9
2.73333333333333,11.8298093800408,34.3021434971021,6.5241859862422,-0.0039068730218057,1,15.5,29.9
2.76666666666667,11.8299821702318,34.5195511912534,6.52027992831527,-0.00390605792692611,1,15.5,29.9
2.8,11.8301372032634,34.7368287104608,6.5163746889451,-0.00390523937017662,1,15.5,29.9
2.83333333333333,11.8302745882038,34.9539760805571,6.5124702705689,-0.00390441837619804,1,15.5,29.9
2.86666666666667,11.8303942129154,35.1709933303712,6.50856697625771,-0.00390329431118985,1,15.5,29.9
2.9,11.8304958099168,35.3878805150986,6.50466609263231,-0.00390088362539842,1,15.5,29.9
2.93333333333333,11.8305790272028,35.6046377451213,6.50076959129711,-0.00389650133520014,1,15.5,29.9
2.96666666666667,11.830643495731,35.8212652026565,6.49687973793458,-0.00388985336253,1,15.5,29.9
3,11.8306896345794,36.0377631440708,6.49299867941485,-0.00388105851973553,1,15.5,29.9
3.03333333333333,11.8307204094111,36.2541318942504,6.48912843476565,-0.00387024464919961,1,15.5,29.9
3.06666666666667,11.8307390658269,36.4703718449288,6.48527092915545,-0.00385750561019638,1,15.5,29.9
3.1,11.8307510681424,36.6864834490439,6.48142787461908,-0.00384305453636813,1,15.5,29.9
3.13333333333333,11.8307628998461,36.902467212519,6.47760070133435,-0.00382717328473348,1,15.5,29.9
3.16666666666667,11.8307786351167,37.1183236831365,6.47379045764179,-0.00381024369255911,1,15.5,29.9
3.2,11.8307998930066,37.3340534367053,6.46999778253159,-0.00379267511020043,1,15.5,29.9
3.23333333333333,11.8308266483731,37.5496570644386,6.4662229677367,-0.00377481479488573,1,15.5,29.9
3.26666666666667,11.8308579019325,37.7651351626037,6.46246602740553,-0.00375694033117746,1,15.5,29.9
3.3,11.8308921678271,37.9804883243891,6.45872676883552,-0.00373925857000224,1,15.5,29.9
3.33333333333333,11.8309277895379,38.195717134945,6.45500492394234,-0.00372184489318439,1,15.5,29.9
3.36666666666667,11.8309631237709,38.4108221710624,6.45130026536124,-0.00370465858109981,1,15.5,29.9
3.4,11.8309974231675,38.625804002044,6.44761255959907,-0.00368770576217337,1,15.5,29.9
3.43333333333333,11.8310326929119,38.8406631874488,6.44394147370307,-0.0036710858959994,1,15.5,29.9
3.46666666666667,11.8310705161175,39.0554002734581,6.4402865312206,-0.003654942482469,1,15.5,29.9
3.5,11.8311114730394,39.2700157885262,6.43664714777463,-0.0036393834459636,1,15.5,29.9
3.53333333333333,11.8311563764779,39.4845102400097,6.4330226384164,-0.00362450935823233,1,15.5,29.9
