Time,x_ego,y_ego,velocity,acceleration,action,x_ped,y_ped
0,11.8,8.9,7,0,1,15.5,29.9
0.0333333333333333,11.7999901209831,9.13327037935821,6.99615582775301,-0.00384417224699174,1,15.3694444444444,29.9
0.0666666666666667,11.7999283079154,9.36640659739677,6.99197000361386,-0.00418582413914592,1,15.2444444444444,29.9
0.1,11.7997811053898,9.59940074254705,6.98769680580286,-0.00427319781100444,1,15.125,29.9
0.133333333333333,11.7995311648256,9.83225372869525,6.98350146580858,-0.0041953399942809,1,15.0111111111111,29.9
0.166666666666667,11.7991724359621,10.0649677100625,6.97936195786056,-0.00413950794801643,1,14.9027777777778,29.9
0.2,11.7987058581477,10.2975442188059,6.97526236201189,-0.00409959584867181,1,14.8,29.9
0.233333333333333,11.7981360596559,10.5299843461649,6.97119130440773,-0.0040710576041576,1,14.7027777777778,29.9
0.266666666666667,11.7974691740079,10.7622888731013,6.96714074072953,-0.004050563678204,1,14.6111111111111,29.9
0.3,11.7967124141733,10.9944583642056,6.96310488401432,-0.00403585671521078,1,14.525,29.9
0.333333333333333,11.79587532532,11.2264932371088,6.95907969482389,-0.00402518919042727,1,14.4444444444444,29.9
0.366666666666667,11.7949663094367,11.4583938042607,6.9550624475277,-0.00401724729618813,1,14.3694444444444,29.9
0.4,11.7939919681248,11.6901603013726,6.9510511957113,-0.00401125181639639,1,14.3,29.9
0.433333333333333,11.7929574328615,11.9217929078134,6.94704453092318,-0.00400666478812717,1,14.2361111111111,29.9
0.466666666666667,11.791867437851,12.153291763486,6.94304130514981,-0.00400322577336265,1,14.1777777777778,29.9
0.5,11.7907291301066,12.3846569888854,6.93904063240908,-0.00400067274073113,1,14.125,29.9
0.533333333333333,11.7895512961717,12.6158886936038,6.93504195435232,-0.00399867805676468,1,14.0777777777778,29.9
0.566666666666667,11.7883440073848,12.8469869827609,6.93104484413709,-0.00399711021523075,1,14.0361111111111,29.9
0.6,11.7871195454474,13.0779519659961,6.92704912976058,-0.00399571437650348,1,14,29.9
0.633333333333333,11.7858877523579,13.3087837423406,6.92305490528219,-0.00399422447839015,1,13.9694444444444,29.9
0.666666666666667,11.7846527793764,13.5394823846363,6.91906221677781,-0.00399268850437995,1,13.9444444444444,29.9
0.7,11.7834135727475,13.7700479379114,6.9150710413116,-0.00399117546621142,1,13.925,29.9
0.733333333333333,11.7821640093226,14.0004804177391,6.9110812511006,-0.00398979021099954,1,13.9111111111111,29.9
0.766666666666667,11.7808976185491,14.2307798312051,6.90709267176008,-0.0039885793405201,1,13.9027777777778,29.9
0.8,11.7796091290031,14.4609461857338,6.90310518065889,-0.00398749110119123,1,13.9,29.9
0.833333333333333,11.778294581716,14.6909794912594,6.89911869245544,-0.00398648820344949,1,13.9,29.9
0.866666666666667,11.7769511629646,14.9208797606394,6.89513314817967,-0.00398554427577125,1,13.9,29.9
0.9,11.7755769309776,15.1506470092248,6.89114850859621,-0.00398463958345818,1,13.9,29.9
0.933333333333333,11.7741705563143,15.3802812542559,6.88716474950893,-0.00398375908728799,1,13.9,29.9
0.966666666666667,11.7727311362952,15.6097825144453,6.88318185738494,-0.00398289212398328,1,13.9,29.9
1,11.7712580941249,15.8391508098529,6.87919982513829,-0.00398203224665217,1,13.9,29.9
1.03333333333333,11.7697511410527,16.0683861619822,6.87521864864369,-0.00398117649459717,1,13.9,29.9
1.06666666666667,11.7682097743696,16.2974304588357,6.86775058554471,-0.00746806309898407,1,13.9,29.9
1.1,11.7666320902157,16.5260526458688,6.8499077126077,-0.0178428729370124,1,13.9,29.9
1.13333333333333,11.7650191375096,16.7537048998391,6.8095713210943,-0.0403363915133959,3,13.9,29.9
1.16666666666667,11.7633738738577,16.9798107908654,6.75714264286759,-0.0524286782267094,3,13.9,29.9
1.2,11.7616996753447,17.2039382187801,6.69088005868466,-0.0662625841829296,3,13.9,29.9
1.23333333333333,11.7600005893133,17.4256838724661,6.61425215780688,-0.0766279008777824,3,13.9,29.9
1.26666666666667,11.758280799324,17.6447022880009,6.52726115435656,-0.0869910034503167,3,13.9,29.9
1.3,11.7565449579722,17.8606190101076,6.42816531671164,-0.0990958376449198,3,13.9,29.9
1.33333333333333,11.7547972579285,18.0731461274994,6.32389899188335,-0.104266324828296,3,13.9,29.9
1.36666666666667,11.7530403080643,18.2822268537913,6.22139558972063,-0.10250340216272,3,13.9,29.9
1.4,11.7512762735514,18.4878618325046,6.11716758023144,-0.104228009489189,3,13.9,29.9
1.43333333333333,11.7495083388396,18.689907490646,6.00604903281327,-0.111118547418166,3,13.9,29.9
1.46666666666667,11.7477410057594,18.8880473495526,5.88283091726441,-0.123218115548865,3,13.9,29.9
1.5,11.7459792942246,19.0818207402039,5.74407064768518,-0.13876026957923,3,13.9,29.9
1.53333333333333,11.7442258870065,19.2707961069908,5.5949584943617,-0.149112153323472,3,13.9,29.9
1.56666666666667,11.7424825344721,19.4547435970186,5.44240629567322,-0.152552198688487,3,13.9,29.9
1.6,11.7407510328094,19.6335776395216,5.28815876202784,-0.154247533645381,3,13.9,29.9
1.63333333333333,11.7390338416462,19.807241757708,5.13221637455964,-0.155942387468195,3,13.9,29.9
1.66666666666667,11.7373335491808,19.9757368973732,4.97802374387264,-0.154192630687006,3,13.9,29.9
1.7,11.7356528661057,20.139092711764,4.82385869359174,-0.154165050280892,3,13.9,29.9
1.73333333333333,11.7339949335057,20.2973101521945,4.66972124747059,-0.154137446121156,3,13.9,29.9
1.76666666666667,11.7323629573653,20.4503901671846,4.51561138284834,-0.154109864622244,3,13.9,29.9
1.8,11.7307601378876,20.5983327172668,4.36144331128739,-0.154168071560956,3,13.9,29.9
1.83333333333333,11.7291901763216,20.7410767398538,4.20370406833486,-0.157739242952531,3,13.8991319444444,29.9
1.86666666666667,11.7276561286237,20.8786195590712,4.04937175359341,-0.154332314741445,3,13.8965277777778,29.9
1.9,11.7261609044084,21.0109597866042,3.89154648623245,-0.157825267360964,3,13.8921875,29.9
1.93333333333333,11.7247088924852,21.137924022888,3.72680754514948,-0.164738941082963,3,13.8861111111111,29.9
1.96666666666667,11.7233040324493,21.2593682503577,3.56033876046944,-0.166468784680038,3,13.8782986111111,29.9
2,11.7219495170975,21.3752067106937,3.39045209376202,-0.169886666707427,3,13.86875,29.9
2.03333333333333,11.7206483410283,21.4853540021004,3.21885690687515,-0.171595186886871,3,13.8574652777778,29.9
2.06666666666667,11.7194030238793,21.5897536820855,3.045581453662,-0.173275453213149,3,13.8444444444444,29.9
2.1,11.7182159157332,21.6883498564996,2.87063042891677,-0.174951024745231,3,13.8296875,29.9
2.13333333333333,11.7170886430882,21.7811441669568,2.69745156329101,-0.17317886562576,3,13.8131944444444,29.9
2.16666666666667,11.7160227358992,21.8681383435356,2.52260274884693,-0.174848814444074,3,13.7949652777778,29.9
2.2,11.7150196570381,21.9493341768062,2.34952999159437,-0.173072757252562,3,13.775,29.9
2.23333333333333,11.7140805001006,22.0247623481515,2.17654531134455,-0.172984680249817,3,13.7532986111111,29.9
2.26666666666667,11.7132064352522,22.0944369524107,2.00459357096159,-0.171951740382967,3,13.7298611111111,29.9
2.3,11.7123980265152,22.1584192763136,1.83512296953957,-0.169470601422013,3,13.7046875,29.9
2.33333333333333,11.7116553925277,22.2168015521142,1.668598116544,-0.166524852995575,3,13.6777777777778,29.9
2.36666666666667,11.7109784427582,22.269683784422,1.50510867652926,-0.163489440014736,3,13.6491319444444,29.9
2.4,11.7103669313562,22.3171680709551,1.34470172016125,-0.160406956368015,3,13.61875,29.9
2.43333333333333,11.709820468462,22.3593574305369,1.18738764241913,-0.157314077742122,3,13.5866319444444,29.9
2.46666666666667,11.7093388550961,22.3963259099711,1.03142972397019,-0.155957918448939,3,13.5527777777778,29.9
2.5,11.7089214391403,22.4281778872499,0.880408494784871,-0.151021229185316,3,13.5171875,29.9
2.53333333333333,11.7085667668872,22.4550803413119,0.734423042077648,-0.145985452707223,3,13.4798611111111,29.9
2.56666666666667,11.7082732926014,22.4771994891223,0.593366143463765,-0.141056898613883,3,13.4407986111111,29.9
2.6,11.7080397375749,22.4946697871572,0.455479295192179,-0.137886848271586,3,13.4,29.9
2.63333333333333,11.7078650647882,22.5075976521855,0.320794354075144,-0.134684941117035,3,13.3574652777778,29.9
2.66666666666667,11.7077475490076,22.5161459368781,0.192670470841557,-0.128123883233587,3,13.3131944444444,29.9
2.7,11.7076854492759,22.5204750210686,0.0676992080262944,-0.124971262815262,3,13.2671875,29.9
2.73333333333333,11.7076733228467,22.5210725390336,0.00354303376621059,-0.0641561742600838,3,13.2194444444444,29.9
2.76666666666667,11.7076794491713,22.5207662229176,0.0100907689753583,0.0065477352091477,5,13.1699652777778,29.9
2.8,11.7076936519704,22.5204599973662,0.00542919748671032,-0.00466157148864797,5,13.11875,29.9
2.83333333333333,11.7076936519704,22.5204599973662,0.00697630864023827,0.00154711115352795,5,13.0657986111111,29.9
2.86666666666667,11.7076936519704,22.5204599973662,0.00867453378525466,0.00169822514501639,5,13.0111111111111,29.9
2.9,11.7076936519704,22.5204599973662,0.0103624613810482,0.00168792759579356,5,12.9546875,29.9
2.93333333333333,11.7076936519704,22.5204599973662,0.0118686397939648,0.00150617841291655,5,12.8965277777778,29.9
2.96666666666667,11.7076936519704,22.5204599973662,0.013033049058088,0.00116440926412327,5,12.8366319444444,29.9
3,11.7076936519704,22.5204599973662,0.0137244010184782,0.000691351960390118,5,12.775,29.9
3.03333333333333,11.7076936519704,22.5204599973662,0.0138523859128122,0.000127984894334002,5,12.7116319444444,29.9
3.06666666666667,11.7076936519704,22.5204599973662,0.0133745404010629,-0.000477845511749302,5,12.6465277777778,29.9
3.1,11.7076936519704,22.5204599973662,0.0122979032193728,-0.0010766371816901,5,12.5796875,29.9
3.13333333333333,11.7076936519704,22.5204599973662,0.0106760239825324,-0.00162187923684034,5,12.5111111111111,29.9
3.16666666666667,11.7076936519704,22.5204599973662,0.00860218317656621,-0.00207384080596622,5,12.4407986111111,29.9
3.2,11.7076936519704,22.5204599973662,0.00619986231308322,-0.00240232086348299,5,12.36875,29.9
3.23333333333333,11.7076936519704,22.5204599973662,0.00361157670818092,-0.0025882856049023,5,12.2949652777778,29.9
3.26666666666667,11.7076936519704,22.5204599973662,0.000987160698975991,-0.00262441600920493,5,12.2194444444444,29.9
3.3,11.7076936519704,22.5204599973662,0.00152750719710311,0.000540346498127121,5,12.1421875,29.9
3.33333333333333,11.7076936519704,22.5204599973662,0.00380051398160826,0.00227300678450515,5,12.0631944444444,29.9
3.36666666666667,11.7076936519704,22.5204599973662,0.00572203290602766,0.0019215189244194,5,11.9824652777778,29.9
3.4,11.7076936519704,22.5204599973662,0.00711156576701844,0.00138953286099078,5,11.9,29.9
3.43333333333333,11.7076913272427,22.5206673373084,0.0110316420989281,0.00392007633190969,5,11.8157986111111,29.9
3.46666666666667,11.7076878883297,22.5209740589708,0.0134146172344252,0.00238297513549707,5,11.7298611111111,29.9
3.5,11.7076833601804,22.5213778625501,0.0156939874421975,0.00227937020777229,5,11.6421875,29.9
3.53333333333333,11.7076774474553,22.52190499065,0.0194950988936803,0.00380111145148284,5,11.5527777777778,29.9
3.56666666666667,11.7076695335552,22.5226102962762,0.0250661323557516,0.00557103346207128,5,11.4616319444444,29.9
3.6,11.7076586885304,22.5235765072128,0.0341218665972709,0.00905573424151934,5,11.36875,29.9
3.63333333333333,11.7076439958606,22.5248850233063,0.0449376098842068,0.0108157432869358,5,11.2741319444444,29.9
3.66666666666667,11.7076245555545,22.5266155610525,0.0590836970033631,0.0141460871191564,5,11.1777777777778,29.9
3.7,11.707598838567,22.5289036211741,0.0782139491426123,0.0191302521392491,4,11.0796875,29.9
3.73333333333333,11.7075653392602,22.5318820899372,0.100441688019831,0.0222277388772191,4,10.9798611111111,29.9
3.76666666666667,11.707522255821,22.5357094596826,0.129134002208097,0.0286923141882655,4,10.8782986111111,29.9
3.8,11.7074681351135,22.5405118990257,0.158953207015171,0.0298192048070745,4,10.775,29.9
3.83333333333333,11.7074018725257,22.546382794953,0.193253323699234,0.0343001166840622,4,10.6699652777778,29.9
3.86666666666667,11.7073223784467,22.553411993596,0.228460024326387,0.0352067006271536,4,10.5631944444444,29.9
3.9,11.7072295362184,22.5615998483111,0.262790114240003,0.0343300899136161,4,10.4546875,29.9
3.93333333333333,11.7071231952081,22.5709467333172,0.298018401868589,0.0352282876285862,4,10.3444444444444,29.9
3.96666666666667,11.7070028332281,22.5814829551314,0.334155870718501,0.0361374688499118,4,10.2324652777778,29.9
4,11.7068672375817,22.5932969875923,0.374682281766855,0.0405264110483533,4,10.11875,29.9
4.03333333333333,11.7067148237984,22.6065067178321,0.417885754075495,0.0432034723086407,4,10.0032986111111,29.9
4.06666666666667,11.7065449396087,22.6211428704632,0.460254961159305,0.0423692070838098,4,9.88611111111111,29.9
4.1,11.7063575507733,22.637177206001,0.501761806953919,0.0415068457946144,4,9.7671875,29.9
4.13333333333333,11.706152586479,22.6545802621079,0.542366607828034,0.0406048008741149,4,9.64652777777778,29.9
4.16666666666667,11.7059299021846,22.6733214728324,0.582044812990042,0.0396782051620078,4,9.52413194444444,29.9
4.2,11.7056893250174,22.6933696814016,0.620785141023205,0.0387403280331626,4,9.4,29.9
4.23333333333333,11.7054306805157,22.7146935231467,0.658585869839336,0.0378007288161309,4,9.27413194444444,29.9
4.26666666666667,11.7051538089337,22.7372617079575,0.695453661660559,0.0368677918212228,4,9.14652777777778,29.9
4.3,11.7048585788485,22.7610436143151,0.731426901920801,0.0359732402602423,4,9.0171875,29.9
4.33333333333333,11.7045448946607,22.786010393518,0.76656450235909,0.0351376004382888,4,8.88611111111111,29.9
4.36666666666667,11.704212714407,22.8121350190701,0.800915439981092,0.0343509376220027,4,8.75329861111111,29.9
4.4,11.7038620692122,22.8393919536741,0.834519883795417,0.0336044438143241,4,8.61875,29.9
4.43333333333333,11.7034930782077,22.8677568935151,0.867411448209512,0.0328915644140954,4,8.48246527777778,29.9
4.46666666666667,11.7031059582192,22.8972065763738,0.899618843787702,0.0322073955781896,4,8.34444444444444,29.9
4.5,11.702701028588,22.9277185660456,0.931158033595664,0.031539189807962,4,8.2046875,29.9
4.53333333333333,11.7022787198059,22.9592702239194,0.962000907892456,0.0308428742967924,4,8.06319444444444,29.9
4.56666666666667,11.7018395748386,22.9918378465273,0.992120039836959,0.030119131944503,4,7.91996527777778,29.9
4.6,11.7013842305652,23.0253970866941,1.02150312837006,0.0293830885331052,4,7.775,29.9
4.63333333333333,11.7009133948871,23.0599233371666,1.05014652754491,0.0286433991748503,4,7.62829861111111,29.9
4.66666666666667,11.7004278211659,23.0953920042848,1.07805479514502,0.0279082676001028,4,7.47986111111111,29.9
4.7,11.6999282801331,23.1317787555445,1.10523878608431,0.0271839909392879,4,7.3296875,29.9
4.73333333333333,11.699415531141,23.1690596935803,1.13171356898493,0.0264747829006216,4,7.17777777777778,29.9
4.76666666666667,11.6988902931827,23.2072115460298,1.1575047348424,0.025791165857469,4,7.02413194444444,29.9
4.8,11.698353212694,23.2462122536482,1.18265695313773,0.0251522182953368,4,6.86875,29.9
4.83333333333333,11.697804838133,23.2860412280678,1.20721146765057,0.024554514512833,4,6.71163194444444,29.9
4.86666666666667,11.6972456044038,23.3266791403333,1.23120290397355,0.0239914363229872,4,6.55277777777778,29.9
4.9,11.6966758226221,23.3681077271373,1.25466081257341,0.0234579085998567,4,6.3921875,29.9
4.93333333333333,11.6960956757906,23.4103096414407,1.27761081732097,0.0229500047475584,4,6.22986111111111,29.9
4.96666666666667,11.6955052210175,23.4532683362164,1.30007547144279,0.0224646541218181,4,6.06579861111111,29.9
5,11.6949043984435,23.4969679729887,1.32207489670621,0.0219994252634226,4,5.9,29.9
5.03333333333333,11.6942930465399,23.5413933490057,1.34362726228846,0.0215523655822514,4,5.9,29.9
5.06666666666667,11.6936709229806,23.5865298363262,1.36474865526499,0.021121392976533,4,5.9,29.9
5.1,11.6930377304098,23.6323632801793,1.38545639405803,0.0207077387930341,4,5.9,29.9
5.13333333333333,11.6923931239913,23.6788816114083,1.40588896378037,0.0204325697223444,4,5.9,29.9
5.16666666666667,11.6917366655028,23.7260808470604,1.42638760354342,0.0204986397630511,4,5.9,29.9
5.2,11.691067774576,23.7739710628367,1.44744587159805,0.0210582680546303,4,5.9,29.9
5.23333333333333,11.6903856965836,23.8225805400099,1.46965515443914,0.0222092828410843,4,5.9,29.9
5.26666666666667,11.6896894818254,23.871958384773,1.49366622699474,0.0240110725556066,4,5.9,29.9
5.3,11.6889779704828,23.9221759857985,1.52016940333932,0.0265031763445784,4,5.9,29.9
5.33333333333333,11.6882497600926,23.9733291441208,1.54995030642403,0.0297809030847045,4,5.9,29.9
5.36666666666667,11.6875031391726,24.0255421610896,1.58393848366122,0.0339881772371933,4,5.9,29.9
5.4,11.6867360026396,24.0789726170744,1.62317799335664,0.0392395096954232,4,5.9,29.9
5.43333333333333,11.6859458229354,24.1338110302561,1.66854441071828,0.0453664173616375,4,5.9,29.9
5.46666666666667,11.6851297259288,24.190271760167,1.72060248462084,0.0520580739025631,4,5.9,29.9
5.5,11.68428456587,24.2485838848055,1.77967853414049,0.0590760495196487,4,5.9,29.9
5.53333333333333,11.6834069789089,24.3089839413175,1.84589759287911,0.0662190587386182,4,5.9,29.9
5.56666666666667,11.6824934415209,24.3717087261315,1.91913757930712,0.0732399864280135,4,5.9,29.9
5.6,11.6815403483823,24.4369873098711,1.99908333065822,0.0799457513510975,4,5.9,29.9
5.63333333333333,11.680544059305,24.5050364381882,2.0853127461094,0.0862294154511798,4,5.9,29.9
5.66666666666667,11.6795009467276,24.5760570125301,2.17729722185689,0.0919844757474881,4,5.9,29.9
5.7,11.6784074571316,24.6502306794872,2.27441443854575,0.0971172166888601,4,5.9,29.9
5.73333333333333,11.677260176168,24.7277172553615,2.37598304384774,0.101568605301993,4,5.9,29.9
5.76666666666667,11.6760558909024,24.8086532767228,2.48129494042452,0.105311896576773,4,5.9,29.9
5.8,11.6747916309856,24.8931528675035,2.58973777654489,0.108442836120377,4,5.9,29.9
5.83333333333333,11.6734647103528,24.9813115502059,2.70078817431075,0.111050397765857,4,5.9,29.9
5.86666666666667,11.6720727994072,25.073207976022,2.81395736851589,0.113169194205144,4,5.9,29.9
5.9,11.6706139180835,25.1689053502412,2.92881446606346,0.114857097547568,4,5.9,29.9
5.93333333333333,11.6690863772899,25.2684541761685,3.04503467555722,0.116220209493761,4,5.9,29.9
5.96666666666667,11.667488690293,25.3718960004457,3.16240135202545,0.117366676468231,4,5.9,29.9
6,11.6658194813733,25.4792667958599,3.28079835501203,0.118397002986578,4,5.9,29.9
6.03333333333333,11.6640773995033,25.5905999992149,3.4001758578574,0.119377502845365,4,5.9,29.9
6.06666666666667,11.6622610601569,25.7059279641639,3.52052929905132,0.120353441193923,4,5.9,29.9
6.1,11.6603689869526,25.8252840839451,3.64191608284168,0.121386783790356,4,5.9,29.9
6.13333333333333,11.6583995812689,25.9487036160731,3.7643786534957,0.122462570654021,4,5.9,29.9
6.16666666666667,11.6563511335132,26.0762222157538,3.88789386302114,0.123515209525445,4,5.9,29.9
6.2,11.6542218565608,26.2078734875173,4.01236329057727,0.124469427556129,4,5.9,29.9
6.23333333333333,11.652009921682,26.3436868207712,4.13763694542873,0.125273654851458,4,5.9,29.9
6.26666666666667,11.6497134901652,26.4836858619982,4.26351997141466,0.125883025985928,4,5.9,29.9
6.3,11.6473307429785,26.6278873624683,4.38979513728113,0.126275165866473,4,5.9,29.9
6.33333333333333,11.6448599247839,26.7762992560798,4.51613267220621,0.126337534925081,4,5.9,29.9
6.36666666666667,11.6422994062859,26.9289176862247,4.642194449198,0.126061776991786,4,5.9,29.9
6.4,11.6396476688608,27.0857292663558,4.76774719483095,0.125552745632959,4,5.9,29.9
6.43333333333333,11.6369032724718,27.2467143107012,4.89264176297684,0.124894568145883,4,5.9,29.9
6.46666666666667,11.6340648288548,27.4118494681762,5.0168088288205,0.124167065843659,4,5.9,29.9
6.5,11.6311309724171,27.5811101840998,5.14023707951867,0.123428250698173,4,5.9,29.9
6.53333333333333,11.6281003468853,27.7544718164814,5.26292698652434,0.122689907005669,4,5.9,29.9
6.56666666666667,11.6249716054481,27.9319096110679,5.38487047088974,0.121943484365403,4,5.9,29.9
6.6,11.6217434103417,28.1133985030053,5.50605821725145,0.121187746361708,4,5.9,29.9
