Time,x_ego,y_ego,velocity,acceleration,action,x_ped,y_ped
0,11.8,15.9,7,0,1,15.5,29.9
0.0333333333333333,11.7999950604381,16.1332811153972,5.60933143750928e-06,-6.99999439066856,3,15.5,29.9
0.0666666666666667,11.7999950604381,16.1332811153972,1.022380140948e-05,4.61446997197074e-06,5,15.5,29.9
0.1,11.7999950597279,16.1335215016598,0.0149851578770766,0.0149749340756671,5,15.5,29.9
0.133333333333333,11.7999950571751,16.1343353327529,0.0354279469105756,0.0204427890334991,4,15.5,29.9
0.166666666666667,11.7999950496505,16.1359716503522,0.0638488871591791,0.0284209402486035,4,15.5,29.9
0.2,11.7999950293532,16.1386522649374,0.0977292824045572,0.033880395245378,4,15.5,29.9
0.233333333333333,11.799994979721,16.1425266497467,0.135214921681652,0.0374856392770949,4,15.5,29.9
0.266666666666667,11.7999948699774,16.1476910917185,0.174944401843149,0.0397294801614972,4,15.5,29.9
0.3,11.7999946492181,16.154202895574,0.215921678495024,0.0409772766518749,4,15.5,29.9
0.333333333333333,11.7999942408396,16.1620619265614,0.255689703564316,0.0397680250692919,4,15.5,29.9
0.366666666666667,11.7999935380997,16.1712782228828,0.297310861952336,0.0416211583880202,4,15.5,29.9
0.4,11.799992400535,16.181879729745,0.338767885925589,0.0414570239732526,4,15.5,29.9
0.433333333333333,11.7999906513965,16.1938575316757,0.379862735181651,0.0410948492560619,4,15.5,29.9
0.466666666666667,11.7999880772115,16.2071971144253,0.42045421093332,0.0405914757516687,4,15.5,29.9
0.5,11.7999844295842,16.2218799853709,0.460442851547764,0.0399886406144443,4,15.5,29.9
0.533333333333333,11.7999794291796,16.2378847562633,0.49974877427466,0.0393059227268958,4,15.5,29.9
0.566666666666667,11.7999727723666,16.2551583194837,0.536554275369947,0.036805501095287,4,15.5,29.9
0.6,11.7999641398625,16.2736746755629,0.57430361971251,0.0377493443425629,4,15.5,29.9
0.633333333333333,11.7999532065507,16.2934356449932,0.611220965265791,0.0369173455532812,4,15.5,29.9
0.666666666666667,11.7999396523744,16.3144131136295,0.647287319864021,0.0360663545982306,4,15.5,29.9
0.7,11.7999231738034,16.3365785246107,0.682494758858631,0.0352074389946092,4,15.5,29.9
0.733333333333333,11.7999034959918,16.3599033336823,0.716857625732512,0.0343628668738813,4,15.5,29.9
0.766666666666667,11.7998803843901,16.3843601570973,0.750425423891995,0.0335677981594832,4,15.5,29.9
0.8,11.7998536551352,16.4099232603132,0.783243621905273,0.0328181980132781,4,15.5,29.9
0.833333333333333,11.7998231835924,16.4365682933296,0.815349567168614,0.032105945263341,4,15.5,29.9
0.866666666666667,11.7997889104685,16.4642720556853,0.846774587151451,0.0314250199828364,4,15.5,29.9
0.9,11.7997508450503,16.4930123200326,0.877545527574337,0.0307709404228863,4,15.5,29.9
0.933333333333333,11.7997090695149,16.5227386462249,0.905943549910452,0.0283980223361149,4,15.5,29.9
0.966666666666667,11.7996637286154,16.5534303905245,0.935467571619921,0.0295240217094687,4,15.5,29.9
1,11.7996150225608,16.5850955335616,0.964340765812701,0.0288731941927806,4,15.5,29.9
1.03333333333333,11.799563205288,16.617711915154,0.992537539956306,0.0281967741436048,4,15.5,29.9
1.06666666666667,11.7995085675688,16.6512567687182,1.02004622230339,0.0275086823470843,4,15.5,29.9
1.1,11.7994514224673,16.6857070740884,1.04686310236792,0.0268168800645276,4,15.5,29.9
1.13333333333333,11.799392098072,16.7210107647254,1.07125034566148,0.0243872432935588,4,15.5,29.9
1.16666666666667,11.7993309051587,16.7571452620339,1.09671321381034,0.0254628681488673,4,15.5,29.9
1.2,11.799268120046,16.7941175667944,1.1215202774844,0.0248070636740589,4,15.5,29.9
1.23333333333333,11.7992039973555,16.8318769872838,1.14394446894171,0.0224241914573058,4,15.5,29.9
1.26666666666667,11.7991387153877,16.8704315374431,1.16923494104217,0.0252904721004588,4,15.5,29.9
1.3,11.7990723736989,16.9098199142936,1.19397854008083,0.0247435990386673,4,15.5,29.9
1.33333333333333,11.7990050185219,16.9500239385535,1.21817787673235,0.0241993366515201,4,15.5,29.9
1.36666666666667,11.7989366172867,16.9910258437788,1.24185513165519,0.0236772549228395,4,15.5,29.9
1.4,11.7988670601894,17.0328085720219,1.26503065401455,0.0231755223593508,4,15.5,29.9
1.43333333333333,11.7987961664801,17.0753557173069,1.28772324799032,0.0226925939757743,4,15.5,29.9
1.46666666666667,11.7987236950022,17.1186514776183,1.30995039473581,0.0222271467454935,4,15.5,29.9
1.5,11.7986493583588,17.1626806135787,1.33172842615768,0.0217780314218647,4,15.5,29.9
1.53333333333333,11.7985728398003,17.207428412437,1.35307266289254,0.0213442367348584,4,15.5,29.9
1.56666666666667,11.7984938117113,17.2528806340306,1.37399475002699,0.0209220871344533,4,15.5,29.9
1.6,11.798411954571,17.2990232172451,1.39449404287071,0.0204992928437189,4,15.5,29.9
1.63333333333333,11.7983269748884,17.345842052165,1.41457045531221,0.0200764124414992,4,15.5,29.9
1.66666666666667,11.798238620644,17.3933231012399,1.43422815717547,0.0196577018632675,4,15.5,29.9
1.7,11.7981466933398,17.4414525173776,1.45347420231517,0.0192460451396907,4,15.5,29.9
1.73333333333333,11.7980510558434,17.4902167228176,1.47231753968539,0.0188433373702248,4,15.5,29.9
1.76666666666667,11.7979516355324,17.5396024598712,1.49076830342959,0.0184507637441951,4,15.5,29.9
1.8,11.797848422648,17.5895968215097,1.50883730662126,0.0180690031916746,4,15.5,29.9
1.83333333333333,11.7977414641711,17.6401872676293,1.52653568323215,0.0176983766108874,2,15.5,29.9
1.86666666666667,11.7976308539057,17.6913616312364,1.54387463767427,0.0173389544421201,2,15.5,29.9
1.9,11.7975167197516,17.7431081176372,1.56086527217935,0.0169906345050868,2,15.5,29.9
1.93333333333333,11.7973992093422,17.7954152988622,1.57751847032631,0.016653198146958,2,15.5,29.9
1.96666666666667,11.7972784753117,17.8482720925934,1.59384303639575,0.0163245660694329,2,15.5,29.9
2,11.7971546616114,17.9016675302458,1.60983644742028,0.0159934110245354,2,15.5,29.9
2.03333333333333,11.797027891755,17.9555905081588,1.62549564301305,0.0156591955927698,2,15.5,29.9
2.06666666666667,11.7968982593834,18.0100298990138,1.64082202050473,0.0153263774916754,2,15.5,29.9
2.1,11.7967658219814,18.0649746761144,1.65582003139277,0.0149980108880394,2,15.5,29.9
2.13333333333333,11.7966305979729,18.1204139974068,1.67049616793047,0.0146761365377057,2,15.5,29.9
2.16666666666667,11.7964925670556,18.1763372606967,1.68485823334552,0.0143620654150474,2,15.5,29.9
2.2,11.7963516733911,18.2327341381829,1.69891481969745,0.014056586351932,2,15.5,29.9
2.23333333333333,11.796207831085,18.2895945962424,1.7126749373458,0.0137601176483497,2,15.5,29.9
2.26666666666667,11.796060931289,18.3469089047971,1.72614775478797,0.0134728174421685,2,15.5,29.9
2.3,11.7959108502257,18.4046676394111,1.73934241856904,0.0131946637810669,2,15.5,29.9
2.33333333333333,11.7957574574681,18.4628616783981,1.75226793105337,0.0129255124843308,2,15.5,29.9
2.36666666666667,11.7956006238819,18.5214821965855,1.7649330698151,0.0126651387617289,2,15.5,29.9
2.4,11.7954402287419,18.580520656915,1.77734633679796,0.0124132669828674,2,15.5,29.9
2.43333333333333,11.7952761656446,18.6399688007216,1.78951592862155,0.0121695918235831,2,15.5,29.9
2.46666666666667,11.795108346954,18.6998186372864,1.80144972177417,0.0119337931526229,2,15.5,29.9
2.5,11.7949367066211,18.760062432566,1.81315514673453,0.0117054249603608,2,15.5,29.9
2.53333333333333,11.7947612013591,18.8206926705169,1.82463754631163,0.0114823995770994,2,15.5,29.9
2.56666666666667,11.7945818102191,18.8817019821978,1.83589993655848,0.0112623902468556,2,15.5,29.9
2.6,11.7943985330336,18.943082854915,1.84692784640556,0.011027909847072,2,15.5,29.9
2.63333333333333,11.7942113879874,19.0048271261246,1.85770270985905,0.0107748634534928,2,15.5,29.9
2.66666666666667,11.7940204066489,19.0669263578971,1.86822877388631,0.0105260640272613,2,15.5,29.9
2.7,11.7938256276818,19.1293725293541,1.87852197920927,0.0102932053229625,2,15.5,29.9
2.73333333333333,11.7936270915148,19.1921580185606,1.88858810928294,0.0100661300736715,2,15.5,29.9
2.76666666666667,11.7934248358858,19.2552752132186,1.89842472844445,0.00983661916150225,2,15.5,29.9
2.8,11.7932188913776,19.3187164586123,1.90803192413463,0.00960719569018531,2,15.5,29.9
2.83333333333333,11.7930092777134,19.3824741331369,1.91741159055686,0.00937966642222432,2,15.5,29.9
2.86666666666667,11.7927960013719,19.446540706777,1.92656674727986,0.00915515672299971,2,15.5,29.9
2.9,11.7925790549032,19.5109086814412,1.93549582400413,0.0089290767242749,2,15.5,29.9
2.93333333333333,11.7923584177882,19.5755704985352,1.94419816319716,0.00870233919303343,2,15.5,29.9
2.96666666666667,11.7921340581124,19.6405186788307,1.95268048838376,0.00848232518659686,2,15.5,29.9
3,11.7919059348439,19.7057461317384,1.96095761142549,0.0082771230417289,2,15.5,29.9
3.03333333333333,11.7916740011778,19.7712462435374,1.96904239678285,0.00808478535736312,2,15.5,29.9
3.06666666666667,11.7914382086773,19.8370126903922,1.9769380668157,0.00789567003284897,2,15.5,29.9
3.1,11.7911985114782,19.9030391389871,1.98464326447506,0.00770519765935895,2,15.5,29.9
3.13333333333333,11.790954869215,19.9693192551384,1.99215884948895,0.00751558501388683,2,15.5,29.9
3.16666666666667,11.7907072492778,20.0358466539943,1.99947968465888,0.00732083516992943,2,15.5,29.9
3.2,11.7904556284092,20.1026147431578,2.00660066374255,0.00712097908366749,2,15.5,29.9
3.23333333333333,11.7901999926823,20.1696168418255,2.0135208983381,0.0069202345955599,2,15.5,29.9
3.26666666666667,11.7899403369553,20.2368461805864,2.02023423227519,0.00671333393708906,2,15.5,29.9
3.3,11.7896766641674,20.304295725787,2.02673347743507,0.0064992451598731,2,15.5,29.9
3.33333333333333,11.7894089834512,20.3719583088055,2.03301759808239,0.00628412064732498,2,15.5,29.9
3.36666666666667,11.7891373079621,20.4398267950833,2.03908894365216,0.00607134556977229,2,15.5,29.9
3.4,11.7888616530378,20.5078941392183,2.04495065687624,0.00586171322407925,2,15.5,29.9
3.43333333333333,11.7885820345343,20.5761534407042,2.05060839285063,0.00565773597438213,2,15.5,29.9
3.46666666666667,11.7882984673609,20.644598022697,2.05606974673123,0.00546135388060609,2,15.5,29.9
3.5,11.7880109643976,20.7132214815394,2.06134339673296,0.00527365000173097,2,15.5,29.9
3.53333333333333,11.7877195357758,20.7820177123669,2.06643851195222,0.00509511521926198,2,15.5,29.9
3.56666666666667,11.7874241884707,20.8509809183474,2.07136435205756,0.00492584010533426,2,15.5,29.9
3.6,11.7871249261527,20.9201056090006,2.07613000462171,0.00476565256415329,2,15.5,29.9
3.63333333333333,11.7868217492704,20.9893865852199,2.08074290654383,0.00461290192211683,2,15.5,29.9
3.66666666666667,11.7865146560816,21.0588186830906,2.08519617971127,0.00445327316744271,2,15.5,29.9
3.7,11.7862036442204,21.1283964194347,2.08948136867224,0.00428518896096852,2,15.5,29.9
3.73333333333333,11.7858887108487,21.1981141418878,2.09359637910435,0.00411501043211215,2,15.5,29.9
3.76666666666667,11.7855698528402,21.267966204361,2.09754338688594,0.00394700778158752,2,15.5,29.9
3.8,11.7852470672086,21.3379470827939,2.10132732582112,0.00378393893518325,2,15.5,29.9
3.83333333333333,11.7849203516643,21.4080514480682,2.10495480836342,0.00362748254230105,2,15.5,29.9
3.86666666666667,11.7845897051848,21.4782742085689,2.10843336748625,0.00347855912282613,2,15.5,29.9
3.9,11.7842551284969,21.5486105316078,2.1117709341975,0.00333756671124563,2,15.5,29.9
3.93333333333333,11.7839166243853,21.6190558504355,2.11497548609688,0.00320455189938595,2,15.5,29.9
3.96666666666667,11.7835741977712,21.6896058616975,2.11805481867682,0.00307933257994097,2,15.5,29.9
4,11.7832278555395,21.760256516801,2.1210164036059,0.0029615849290785,2,15.5,29.9
4.03333333333333,11.7828776061429,21.8310040062316,2.12386654608536,0.00285014247945536,2,15.5,29.9
4.06666666666667,11.7825234598339,21.9018445299253,2.12659594198582,0.00272939590045951,2,15.5,29.9
4.1,11.7821654302287,21.9727737097116,2.12918435095374,0.00258840896791979,2,15.5,29.9
4.13333333333333,11.7818035336018,22.043786631223,2.13162034577783,0.00243599482409751,2,15.5,29.9
4.16666666666667,11.7814377873644,22.114878129341,2.13389988050863,0.00227953473079712,2,15.5,29.9
4.2,11.7810682089729,22.1860429950727,2.13602404503852,0.00212416452988728,2,15.5,29.9
4.23333333333333,11.7806948152381,22.2572761172627,2.13799737875956,0.00197333372104547,2,15.5,29.9
4.26666666666667,11.7803176219686,22.3285725757153,2.13982662319104,0.0018292444314767,2,15.5,29.9
4.3,11.779936643873,22.399927698648,2.14151981432231,0.00169319113126942,2,15.5,29.9
4.33333333333333,11.7795518946377,22.4713370944126,2.14308563434763,0.00156582002531858,2,15.5,29.9
4.36666666666667,11.7791633870996,22.5427966650244,2.14453295892705,0.00144732457942398,2,15.5,29.9
4.4,11.7787711334414,22.6143026071456,2.14587054995858,0.00133759103152808,2,15.5,29.9
4.43333333333333,11.7783751453558,22.6858514047037,2.14710685521437,0.00123630525578688,2,15.5,29.9
4.46666666666667,11.7779754341445,22.7574398161903,2.14824988533777,0.001143030123401,2,15.5,29.9
4.5,11.7775720107445,22.8290648588309,2.14930714593264,0.00105726059487399,2,15.5,29.9
4.53333333333333,11.7771648856898,22.9007237911713,2.1502856081211,0.000978462188462093,2,15.5,29.9
4.56666666666667,11.7767540690325,22.9724140951482,2.15119170529727,0.000906097176166742,2,15.5,29.9
4.6,11.7763395702533,23.044133458359,2.15203134712261,0.000839641825340465,2,15.5,29.9
4.63333333333333,11.7759213981876,23.115879756994,2.15280994431355,0.000778597190943309,2,15.5,29.9
4.66666666666667,11.7754995609869,23.1876510397087,2.15353243964507,0.00072249533151858,2,15.5,29.9
4.7,11.775074066123,23.2594455125872,2.15420334198116,0.000670902336085799,2,15.5,29.9
4.73333333333333,11.7746449204312,23.33126152526,2.15482676116031,0.000623419179148765,2,15.5,29.9
4.76666666666667,11.77421213018,23.4030975581781,2.15540644230197,0.000579681141664512,2,15.5,29.9
4.8,11.77377570115,23.4749522110082,2.15594579862879,0.000539356326822116,2,15.5,29.9
4.83333333333333,11.7733356387046,23.5468241920891,2.15644794227313,0.000502143644334208,2,15.5,29.9
4.86666666666667,11.7728919478411,23.6187123088776,2.15691571279592,0.000467770522791788,2,15.5,29.9
4.9,11.7724446332166,23.6906154593054,2.15735170332252,0.000435990526599372,2,15.5,29.9
4.93333333333333,11.7719936991524,23.7625326239672,2.15775828431645,0.000406580993931538,2,15.5,29.9
4.96666666666667,11.771539149625,23.8344628590631,2.15813762508599,0.000379340769535386,2,15.5,29.9
5,11.7710809882572,23.9064052900221,2.15849171316207,0.000354088076083059,2,15.5,29.9
5.03333333333333,11.7706192183194,23.9783591057381,2.1588223717091,0.000330658547033735,2,15.5,29.9
5.06666666666667,11.7701538427525,24.050323553356,2.1591312751389,0.000308903429795393,2,15.5,29.9
5.1,11.769684864211,24.1222979335508,2.15941996309758,0.000288687958679201,2,15.5,29.9
5.13333333333333,11.7692122851264,24.1942815962485,2.15968985298876,0.000269889891180153,2,15.5,29.9
5.16666666666667,11.7687361077788,24.2662739367413,2.15994225118627,0.000252398197508885,2,15.5,29.9
5.2,11.768256334368,24.3382743921584,2.16017836307774,0.000236111891471769,2,15.5,29.9
5.23333333333333,11.7677729670688,24.4102824382521,2.16039930206767,0.000220938989927255,2,15.5,29.9
5.26666666666667,11.7672860080641,24.482297586469,2.16060609765579,0.000206795588123754,2,15.5,29.9
5.3,11.7667954595514,24.5543193812769,2.16079970269445,0.00019360503866217,2,15.5,29.9
5.33333333333333,11.7663013237219,24.6263473977197,2.16098099991712,0.00018129722266913,2,15.5,29.9
5.36666666666667,11.7658036027219,24.6983812391802,2.16115080781982,0.000169807902696384,2,15.5,29.9
5.4,11.7653022986042,24.7704205353281,2.1613098859677,0.000159078147882852,2,15.5,29.9
5.43333333333333,11.7647974132818,24.8424649402366,2.16145893979067,0.000149053822970924,2,15.5,29.9
5.46666666666667,11.7642889484937,24.9145141306513,2.16159862492429,0.000139685133618617,2,15.5,29.9
5.5,11.7637769051093,24.9865679191744,2.16174584439787,0.000147219473581206,2,15.5,29.9
5.53333333333333,11.7632612685652,25.058628687889,2.1620681783464,0.000322333948526321,2,15.5,29.9
5.56666666666667,11.7627419654983,25.1307084968198,2.1629611257141,0.000892947367698849,2,15.5,29.9
5.6,11.7622188405243,25.202832475009,2.16476698373927,0.00180585802517408,2,15.5,29.9
5.63333333333333,11.7616916732657,25.2750352766195,2.16772666055794,0.00295967681866705,2,15.5,29.9
5.66666666666667,11.7611601869064,25.3473589281876,2.17205219404365,0.00432553348571085,2,15.5,29.9
5.7,11.7606240520919,25.4198514819796,2.17787255669794,0.00582036265429364,2,15.5,29.9
5.73333333333333,11.7600829051032,25.4925634774898,2.18522949565727,0.00735693895933043,2,15.5,29.9
5.76666666666667,11.7595363502068,25.5655471636356,2.19418648717188,0.00895699151460327,2,15.5,29.9
5.8,11.7589839570248,25.6388567071854,2.2047866863522,0.010600199180324,2,15.5,29.9
5.83333333333333,11.7584252642608,25.7125475556575,2.21707640779043,0.0122897214382305,2,15.5,29.9
5.86666666666667,11.7578597812087,25.7866763152846,2.23105703299654,0.0139806252061145,2,15.5,29.9
5.9,11.7572870029444,25.8612986420118,2.24668571975895,0.0156286867624056,2,15.5,29.9
5.93333333333333,11.7567064162329,25.936468729234,2.26391753884114,0.017231819082193,2,15.5,29.9
5.96666666666667,11.7561175034895,26.0122391832465,2.28270137932531,0.0187838404841707,4,15.5,29.9
6,11.755519747824,26.0886607660776,2.302978528573,0.0202771492476859,4,15.5,29.9
6.03333333333333,11.754912636573,26.1657823533044,2.32469690945323,0.0217183808802304,4,15.5,29.9
6.06666666666667,11.7542956630594,26.2436510982718,2.34780092338888,0.0231040139356455,4,15.5,29.9
6.1,11.7536683305775,26.3223121697566,2.37223149158504,0.0244305681961645,4,15.5,29.9
6.13333333333333,11.753030151488,26.401809103211,2.39795208584751,0.0257205942624741,4,15.5,29.9
6.16666666666667,11.7523806436068,26.4821844158817,2.42493100431626,0.0269789184687417,4,15.5,29.9
6.2,11.7517193324297,26.5634792425494,2.45311770975501,0.0281867054387588,4,15.5,29.9
6.23333333333333,11.7510457525591,26.6457329986886,2.48246315360845,0.02934544385344,4,15.5,29.9
6.26666666666667,11.7503594460122,26.7289834377473,2.51291231531122,0.0304491617027667,4,15.5,29.9
6.3,11.7496599646245,26.8132663405,2.54440660406579,0.0314942887545664,4,15.5,29.9
6.33333333333333,11.7489468728966,26.8986156896829,2.57689392383282,0.0324873197670343,4,15.5,29.9
6.36666666666667,11.7482197492138,26.9850634311598,2.61030018334262,0.0334062595098019,4,15.5,29.9
6.4,11.7474781875622,27.072638748793,2.64453898378623,0.0342388004436063,4,15.5,29.9
6.43333333333333,11.7467217959242,27.1613678403567,2.67951330831693,0.0349743245307033,4,15.5,29.9
6.46666666666667,11.7459501985261,27.2512733024566,2.71510604361189,0.0355927352949585,4,15.5,29.9
6.5,11.7451630381349,27.3423737104195,2.75119535377279,0.036089310160901,4,15.5,29.9
6.53333333333333,11.7443599765264,27.4346836554465,2.78766529899994,0.0364699452271493,4,15.5,29.9
6.56666666666667,11.7435406943921,27.5282140283175,2.82440894727738,0.0367436482774397,4,15.5,29.9
6.6,11.7427048938794,27.6229720666856,2.86131009863575,0.0369011513583684,4,15.5,29.9
6.63333333333333,11.7418523054498,27.7189608901219,2.89824099225078,0.0369308936150303,4,15.5,29.9
6.66666666666667,11.7409826916894,27.8161794368951,2.93507973409791,0.0368387418471325,4,15.5,29.9
6.7,11.7400958493737,27.9146225773536,2.97170125326903,0.0366215191711161,4,15.5,29.9
6.73333333333333,11.7391916135356,28.0142808954385,3.00797429941307,0.0362730461440428,4,15.5,29.9
6.76666666666667,11.7382698622136,28.1151403204369,3.04374103867399,0.0357667392609189,4,15.5,29.9
6.8,11.7373305339177,28.2171801424399,3.07876946617675,0.0350284275027626,4,15.5,29.9
6.83333333333333,11.7363736265537,28.3203733664085,3.11294082803824,0.0341713618614863,4,15.5,29.9
6.86666666666667,11.7353991745496,28.4246897508786,3.14613767274934,0.0331968447110991,4,15.5,29.9
6.9,11.7344072700954,28.530093385903,3.17813323586325,0.0319955631139153,4,15.5,29.9
6.93333333333333,11.7333980979528,28.6365387452559,3.20859005067062,0.0304568148073612,4,15.5,29.9
6.96666666666667,11.7323719621672,28.7439679158829,3.23706906662554,0.0284790159549222,4,15.5,29.9
