Time,x_ego,y_ego,velocity,acceleration,action,x_ped,y_ped
0,11.8,15.9,7,0,1,15.5,29.9
0.0333333333333333,11.8,16.1332703793943,6.99615577953002,-0.00384422046998356,1,15.4502170138889,29.9
0.0666666666666667,11.8,16.3664065988113,6.99196947109348,-0.00418630843653833,1,15.4008680555556,29.9
0.1,11.8,16.5994007552791,6.98769498718995,-0.00427448390352669,1,15.351953125,29.9
0.133333333333333,11.8,16.8322537852842,6.9834976545359,-0.00419733265404787,1,15.3034722222222,29.9
0.166666666666667,11.8,17.0649678802301,6.97935585456763,-0.00414179996826913,1,15.2554253472222,29.9
0.2,11.8,17.2975446186632,6.97525409491249,-0.00410175965514537,1,15.2078125,29.9
0.233333333333333,11.8,17.5299851399444,6.97118127319767,-0.00407282171482137,1,15.1606336805556,29.9
0.266666666666667,11.8,17.7622902687052,6.96712943294736,-0.00405184025031069,1,15.1138888888889,29.9
0.3,11.8,17.9944606040335,6.96309287213007,-0.00403656081728965,1,15.067578125,29.9
0.333333333333333,11.8,18.2264965833863,6.95906750439986,-0.00402536773020401,1,15.0217013888889,29.9
0.366666666666667,11.8,18.4583985283897,6.95505040137947,-0.00401710302039238,1,14.9762586805556,29.9
0.4,11.8,18.6901666776599,6.95103946463339,-0.00401093674607722,1,14.93125,29.9
0.433333333333333,11.8,18.9218012103233,6.94703319054231,-0.00400627409108711,1,14.8866753472222,29.9
0.466666666666667,11.8,19.1533022628712,6.94303050173604,-0.00400268880626342,1,14.8425347222222,29.9
0.5,11.8,19.3846699412377,6.93903062623031,-0.00399987550573222,1,14.798828125,29.9
0.533333333333333,11.8,19.6159043294559,6.93503301077307,-0.00399761545723631,1,14.7555555555556,29.9
0.566666666666667,11.8,19.8470054958598,6.93103725873891,-0.00399575203416092,1,14.7127170138889,29.9
0.6,11.8,20.0779734975296,6.92704308564579,-0.003994173093127,1,14.6703125,29.9
0.633333333333333,11.8,20.3088083834769,6.92305028732138,-0.00399279832440236,1,14.6283420138889,29.9
0.666666666666667,11.8,20.539510196927,6.91905871714157,-0.00399157017981544,1,14.5868055555556,29.9
0.7,11.8,20.7700789769551,6.91506826976362,-0.00399044737794529,1,14.545703125,29.9
0.733333333333333,11.7999951154258,21.0005147596493,6.91107888145388,-0.0039893883097406,1,14.5050347222222,29.9
0.766666666666667,11.799964521346,21.2307885130553,6.90534669343327,-0.00573218802061159,1,14.4648003472222,29.9
0.8,11.7998915981328,21.4608134389144,6.89614988892229,-0.00919680451098159,1,14.425,29.9
0.833333333333333,11.7997677168291,21.6903588729699,6.87657871133617,-0.0195711775861218,3,14.3856336805556,29.9
0.866666666666667,11.7995899210874,21.9191941837385,6.85354473488139,-0.02303397645478,3,14.3467013888889,29.9
0.9,11.7993588434711,22.1471174728562,6.82186050708911,-0.0316842277922751,3,14.308203125,29.9
0.933333333333333,11.7990771109591,22.3738694764014,6.78327129867403,-0.0385892084150852,3,14.2701388888889,29.9
0.966666666666667,11.7987482373421,22.5992774464188,6.74122260856543,-0.0420486901085928,3,14.2325086805556,29.9
1,11.7983760062777,22.8232260761615,6.69571534221043,-0.0455072663550053,3,14.1953125,29.9
1.03333333333333,11.7979642277228,23.0455713875414,6.6450282537151,-0.0506870884953274,3,14.1585503472222,29.9
1.06666666666667,11.7975167009516,23.26608332945,6.5857181656897,-0.0593100880253994,3,14.1222222222222,29.9
1.1,11.7970372497913,23.4844163597941,6.51429873629319,-0.07141942939651,3,14.086328125,29.9
1.13333333333333,11.7965297415129,23.7001094608723,6.42732772431631,-0.0869710119768783,3,14.0508680555556,29.9
1.16666666666667,11.7959980826303,23.9125865194876,6.32134162850855,-0.105986095807764,3,14.0158420138889,29.9
1.2,11.7954461573089,24.1211850467339,6.19462141214098,-0.126720216367571,3,13.98125,29.9
1.23333333333333,11.7948776165328,24.3252713637255,6.05061470156281,-0.144006710578171,3,13.9470920138889,29.9
1.26666666666667,11.7942954799032,24.5244426046782,5.8997226107705,-0.150892090792309,3,13.9133680555556,29.9
1.3,11.7937020077349,24.7185553888655,5.74711320263458,-0.152609408135919,3,13.9133680555556,29.9
1.33333333333333,11.793098999487,24.9075528475663,5.59280908914872,-0.15430411348586,3,13.9133680555556,29.9
1.36666666666667,11.7924879636797,25.0914072035436,5.43853285441915,-0.154276234729576,3,13.9133680555556,29.9
1.4,11.7918703556497,25.2700616279347,5.2808185130359,-0.157714341383246,3,13.9133680555556,29.9
1.43333333333333,11.7912477710723,25.4434015373717,5.11966633894454,-0.161152174091361,3,13.9133680555556,29.9
1.46666666666667,11.7906219281733,25.6113127262814,4.9550984039746,-0.164567934969935,3,13.9133680555556,29.9
1.5,11.7899949759655,25.7735945309663,4.7819050682744,-0.173193335700205,3,13.9133680555556,29.9
1.53333333333333,11.7893695565648,25.9299594754973,4.60008724505677,-0.181817823217632,3,13.9133680555556,29.9
1.56666666666667,11.788748673848,26.0800914095256,4.40792382729597,-0.192163417760797,3,13.9133680555556,29.9
1.6,11.7881355870835,26.2236732704617,4.20705589400104,-0.200867933294927,3,13.9133680555556,29.9
1.63333333333333,11.7875334068792,26.360500472519,4.0026515018686,-0.204404392132447,3,13.9133680555556,29.9
1.66666666666667,11.786945074163,26.4904555954629,3.79473563879008,-0.207915863078512,3,13.9133680555556,29.9
1.7,11.7863734440792,26.6134508847149,3.58506407327315,-0.209671565516935,3,13.9133680555556,29.9
1.73333333333333,11.7858212147048,26.7294286022667,3.37368258368494,-0.211381489588213,3,13.9133680555556,29.9
1.76666666666667,11.7852911767666,26.8382742847156,3.15714222587841,-0.216540357806525,3,13.9133680555556,29.9
1.8,11.7847862109396,26.9398161945616,2.93545562589962,-0.221686599978788,3,13.9133680555556,29.9
1.83333333333333,11.7843087836365,27.0339694295985,2.71382026922315,-0.22163535667647,3,13.9133680555556,29.9
1.86666666666667,11.7838609381371,27.1207358161794,2.49224242409929,-0.221577845123864,3,13.9133680555556,29.9
1.9,11.7834445918547,27.2001173563099,2.2707263763001,-0.221516047799186,3,13.9133680555556,29.9
1.93333333333333,11.7830614500165,27.2721187079097,2.04961624310175,-0.221110133198358,3,13.9133680555556,29.9
1.96666666666667,11.7827128061093,27.3367823191095,1.83075649132048,-0.218859751781269,3,13.9133680555556,29.9
2,11.7823994877911,27.3942036258933,1.61514149373495,-0.215614997585523,3,13.9133680555556,29.9
2.03333333333333,11.7821220109735,27.4444960135481,1.40305304843463,-0.212088445300328,3,13.9133680555556,29.9
2.06666666666667,11.7818806467722,27.4877801985321,1.19466504611057,-0.208388002324059,3,13.9133680555556,29.9
2.1,11.7816754625959,27.5241811901726,0.990076847491864,-0.204588198618703,3,13.9133680555556,29.9
2.13333333333333,11.7815063474314,27.5538293910166,0.78954045198147,-0.200536395510394,3,13.9133680555556,29.9
2.16666666666667,11.7813730334362,27.5768622861139,0.593141131260016,-0.196399320721453,3,13.9133680555556,29.9
2.2,11.7812751502804,27.5934176082633,0.400904842042507,-0.192236289217509,3,13.9133680555556,29.9
2.23333333333333,11.7812122383932,27.6036358507776,0.212910021010898,-0.18799482103161,3,13.9133680555556,29.9
2.26666666666667,11.7811837783515,27.6076583299503,0.029258368962479,-0.183651652048418,3,13.9133680555556,29.9
2.3,11.7811868542996,27.6061927271723,0.0682776687525893,0.0390192997901103,4,13.9133680555556,29.9
2.33333333333333,11.7812010395058,27.6039182664878,0.00345438303971752,-0.0648232857128718,3,13.9133680555556,29.9
2.36666666666667,11.7812010395058,27.6039182664878,0.00516834550674289,0.00171396246702537,5,13.9133680555556,29.9
2.4,11.7812010395058,27.6039182664878,0.00744651526384462,0.00227816975710173,5,13.9133680555556,29.9
2.43333333333333,11.7812010395058,27.6039182664878,0.0100861776205651,0.00263966235672044,5,13.9133680555556,29.9
2.46666666666667,11.7812010395058,27.6039182664878,0.0128285141466806,0.00274233652611557,5,13.9133680555556,29.9
2.5,11.7812010395058,27.6039182664878,0.0153958725584344,0.00256735841175373,5,13.9133680555556,29.9
2.53333333333333,11.7812010395058,27.6039182664878,0.0175251296193879,0.00212925706095355,5,13.9133680555556,29.9
2.56666666666667,11.7812010395058,27.6039182664878,0.0189948751908204,0.00146974557143244,5,13.9133680555556,29.9
2.6,11.7812010395058,27.6039182664878,0.0196450214800804,0.000650146289260006,5,13.9133680555556,29.9
2.63333333333333,11.7812010395058,27.6039182664878,0.0193882798538583,-0.000256741626222034,5,13.9133680555556,29.9
2.66666666666667,11.7812010395058,27.6039182664878,0.0182136920323774,-0.00117458782148087,5,13.9133680555556,29.9
2.7,11.7812010395058,27.6039182664878,0.0161830130072204,-0.00203067902515701,5,13.9133680555556,29.9
2.73333333333333,11.7812010395058,27.6039182664878,0.0134211959316292,-0.00276181707559128,5,13.9133680555556,29.9
2.76666666666667,11.7812010395058,27.6039182664878,0.0101025161413177,-0.00331867979031146,5,13.9133680555556,29.9
2.8,11.7812010395058,27.6039182664878,0.00643399739038883,-0.00366851875092887,5,13.9133680555556,29.9
2.83333333333333,11.7812010395058,27.6039182664878,0.00263778418847701,-0.00379621320191182,5,13.9133680555556,29.9
2.86666666666667,11.7812010395058,27.6039182664878,0.00106603638254635,-0.00157174780593066,5,13.9133680555556,29.9
2.9,11.7812010395058,27.6039182664878,0.00447489300615682,0.00340885662361047,5,13.9133680555556,29.9
2.93333333333333,11.7812010395058,27.6039182664878,0.00741649281359344,0.00294159980743662,5,13.9133680555556,29.9
2.96666666666667,11.7812010395058,27.6039182664878,0.00975823811467594,0.0023417453010825,5,13.9133680555556,29.9
3,11.7812010395058,27.6039182664878,0.0114129752290165,0.00165473711434058,5,13.9133680555556,29.9
3.03333333333333,11.7812010395058,27.6039182664878,0.012341060590006,0.000928085360989433,5,13.9133680555556,29.9
3.06666666666667,11.7812010395058,27.6039182664878,0.0125489962376304,0.000207935647624467,5,13.9133680555556,29.9
3.1,11.7812010395058,27.6039182664878,0.0120851002865271,-0.000463895951103358,5,13.9133680555556,29.9
3.13333333333333,11.7812010395058,27.6039182664878,0.0110328303715469,-0.00105226991498014,5,13.9133680555556,29.9
3.16666666666667,11.7812010395058,27.6039182664878,0.00950246722904442,-0.0015303631425025,5,13.9133680555556,29.9
3.2,11.7812010395058,27.6039182664878,0.00762189398238075,-0.00188057324666367,5,13.9133680555556,29.9
3.23333333333333,11.7812010395058,27.6039182664878,0.00552718072032508,-0.00209471326205567,5,13.9133680555556,29.9
3.26666666666667,11.7812010395058,27.6039182664878,0.00335361277797277,-0.0021735679423523,5,13.9133680555556,29.9
3.3,11.7812010395058,27.6039182664878,0.00122769573132941,-0.00212591704664336,5,13.9133680555556,29.9
3.33333333333333,11.7812010395058,27.6039182664878,0.00073945774161083,-0.000488237989718579,5,13.9133680555556,29.9
3.36666666666667,11.7812010395058,27.6039182664878,0.00245709266963901,0.00171763492802818,5,13.9133680555556,29.9
3.4,11.7812010395058,27.6039182664878,0.00385800059016249,0.00140090792052348,5,13.9133680555556,29.9
3.43333333333333,11.7812010395058,27.6039182664878,0.00489993430565384,0.00104193371549136,5,13.9133680555556,29.9
3.46666666666667,11.7812010395058,27.6039182664878,0.00556536369100447,0.000665429385350632,5,13.9133680555556,29.9
3.5,11.7812010395058,27.6039182664878,0.00585977903351516,0.000294415342510684,5,13.9133680555556,29.9
3.53333333333333,11.7812010395058,27.6039182664878,0.00580881493352792,-5.09640999872343e-05,5,13.9133680555556,29.9
3.56666666666667,11.7812010395058,27.6039182664878,0.00545450846362815,-0.000354306469899777,5,13.9133680555556,29.9
3.6,11.7812010395058,27.6039182664878,0.00485102087028224,-0.00060348759334591,5,13.9133680555556,29.9
3.63333333333333,11.7812010395058,27.6039182664878,0.00406014491489965,-0.000790875955382585,5,13.9133680555556,29.9
3.66666666666667,11.7812010395058,27.6039182664878,0.00324550585458733,-0.000814639060312321,5,13.9133680555556,29.9
3.7,11.7811989907826,27.6044084822516,0.0266914865918722,0.0234459807372849,4,13.9133680555556,29.9
3.73333333333333,11.7811920819047,27.606061557516,0.072571576330312,0.0458800897384398,4,13.9133680555556,29.9
3.76666666666667,11.7811784347265,27.6093250603964,0.123153774267439,0.0505821979371273,4,13.9133680555556,29.9
3.8,11.7811577655454,27.6142613240971,0.17287661012196,0.0497228358545206,4,13.9133680555556,29.9
3.83333333333333,11.7811301632785,27.6208376954527,0.221527801054213,0.0486511909322526,4,13.9133680555556,29.9
3.86666666666667,11.7810957077116,27.6290160934182,0.268991205887084,0.0474634048328716,4,13.9133680555556,29.9
3.9,11.7810544466829,27.6387570753112,0.315294830236759,0.0463036243496753,4,13.9133680555556,29.9
3.93333333333333,11.7810063791273,27.6500229612362,0.360495769124302,0.0452009388875421,4,13.9133680555556,29.9
3.96666666666667,11.7809514535405,27.6627777830988,0.404639457143673,0.0441436880193719,4,13.9133680555556,29.9
4,11.7808895700035,27.676986947335,0.447762874076025,0.043123416932352,4,13.9133680555556,29.9
4.03333333333333,11.7808205845056,27.6926169472894,0.489891552289977,0.0421286782139516,4,13.9133680555556,29.9
4.06666666666667,11.7807443175201,27.7096346678364,0.531024141714472,0.041132589424495,4,13.9133680555556,29.9
4.1,11.7806605643485,27.7280068576978,0.571158700134561,0.0401345584200885,4,13.9133680555556,29.9
4.13333333333333,11.7805691046808,27.7477003246169,0.610300855057865,0.0391421549233041,4,13.9133680555556,29.9
4.16666666666667,11.7804697139043,27.7686821482403,0.648461550385153,0.0381606953272886,4,13.9133680555556,29.9
4.2,11.7803621759355,27.7909198310771,0.685655318363571,0.0371937679784174,4,13.9133680555556,29.9
4.23333333333333,11.780246296134,27.81438156822,0.721916521817331,0.0362612034537603,4,13.9133680555556,29.9
4.26666666666667,11.780121910497,27.8390373521995,0.757311351592599,0.0353948297752675,4,13.9133680555556,29.9
4.3,11.7799888972466,27.8648592598596,0.791895950666247,0.0345845990736483,4,13.9133680555556,29.9
4.33333333333333,11.7798471894636,27.8918210593612,0.825715715072167,0.0338197644059198,4,13.9133680555556,29.9
4.36666666666667,11.7796967848678,27.9198979012172,0.858808075289468,0.0330923602173011,4,13.9133680555556,29.9
4.4,11.7795377521844,27.9490660873839,0.891204544370519,0.0323964690810509,4,13.9133680555556,29.9
4.43333333333333,11.7793702337914,27.9793028857605,0.922929345461205,0.0317248010906862,4,13.9133680555556,29.9
4.46666666666667,11.779194447055,28.0105857719505,0.953964929590896,0.0310355841296912,4,13.9133680555556,29.9
4.5,11.7790106838274,28.0428912245328,0.98428033227004,0.0303154026791437,4,13.9133680555556,29.9
4.53333333333333,11.7788193001103,28.0761949618437,1.01386061244205,0.0295802801720069,4,13.9133680555556,29.9
4.56666666666667,11.7786207015421,28.1104723759688,1.04270041996193,0.0288398075198826,4,13.9133680555556,29.9
4.6,11.7784153267864,28.1456988088662,1.07080252187879,0.0281021019168641,4,13.9133680555556,29.9
4.63333333333333,11.7782036289446,28.1818498130008,1.09817656115151,0.0273740392727209,4,13.9133680555556,29.9
4.66666666666667,11.7779860561279,28.2189013425175,1.12483680632227,0.0266602451707556,4,13.9133680555556,29.9
4.7,11.7777630320565,28.2568299060637,1.15080402705173,0.0259672207294623,4,13.9133680555556,29.9
4.73333333333333,11.7775349360854,28.2956130471692,1.17612002194086,0.0253159948891311,4,13.9133680555556,29.9
4.76666666666667,11.777302085262,28.3352297992316,1.20082810193587,0.0247080799950055,4,13.9133680555556,29.9
4.8,11.7770647221186,28.3756605175617,1.22496446382351,0.0241363618876405,4,13.9133680555556,29.9
4.83333333333333,11.7768230064495,28.4168866709205,1.24855987006243,0.0235954062389205,4,13.9133680555556,29.9
4.86666666666667,11.7765770113232,28.4588906815777,1.27164089289009,0.023081022827663,4,13.9133680555556,29.9
4.9,11.7763267208138,28.5016564326402,1.29430059393962,0.0226597010495257,4,13.9133680555556,29.9
4.93333333333333,11.7760720080445,28.5451749648,1.31688584279333,0.0225852488537142,4,13.9133680555556,29.9
4.96666666666667,11.7758126045343,28.5894527640746,1.33997025690623,0.023084414112893,4,13.9133680555556,29.9
5,11.7755480778856,28.6345187262602,1.36431646280618,0.024346205899954,4,13.9133680555556,29.9
5.03333333333333,11.7752778172478,28.6804296573481,1.39083106250899,0.0265145997028069,4,13.9133680555556,29.9
5.06666666666667,11.7750010238371,28.7272746066434,1.42054084494211,0.0297097824331247,4,13.9133680555556,29.9
5.1,11.7747167000055,28.7751791083209,1.45460644714764,0.0340656022055335,4,13.9133680555556,29.9
5.13333333333333,11.7744236433912,28.8243077218282,1.49415656134309,0.0395501141954424,4,13.9133680555556,29.9
5.16666666666667,11.7741204794092,28.8748579322122,1.54001136949948,0.0458548081563939,4,13.9133680555556,29.9
5.2,11.7738057153857,28.9270489963103,1.59267087190888,0.0526595024093961,4,13.9133680555556,29.9
5.23333333333333,11.7734777846312,28.9811123672296,1.65237130621187,0.0597004343029972,4,13.9133680555556,29.9
5.26666666666667,11.773135082813,29.0372833061795,1.71910646635201,0.0667351601401389,4,13.9133680555556,29.9
5.3,11.7727760031296,29.0957925093161,1.79260390041429,0.0734974340622734,4,13.9133680555556,29.9
5.33333333333333,11.7723989721251,29.1568575945531,1.87236656341255,0.0797626629982673,4,13.9133680555556,29.9
5.36666666666667,11.7720024750993,29.2206768815431,1.95774327878157,0.0853767153690159,4,13.9133680555556,29.9
5.4,11.7715850731365,29.2874252696849,2.04799003703178,0.090246758250208,4,13.9133680555556,29.9
5.43333333333333,11.7711454135228,29.3572520483944,2.14232102363948,0.0943309866077064,4,13.9133680555556,29.9
5.46666666666667,11.7706822367956,29.4302801364476,2.23994499215205,0.0976239685125702,4,13.9133680555556,29.9
5.5,11.7701943824239,29.5066064081397,2.34009497600042,0.100149983848369,4,13.9133680555556,29.9
5.53333333333333,11.7696807906381,29.5863034849171,2.44210654744936,0.102011571448942,4,13.9133680555556,29.9
5.56666666666667,11.7691404894966,29.6694247813795,2.5454776685201,0.103371121070739,4,13.9133680555556,29.9
5.6,11.768572600014,29.7560082353228,2.64977422806895,0.104296559548843,4,13.9133680555556,29.9
5.63333333333333,11.7679763709866,29.8460782077331,2.75461513953141,0.104840911462461,4,13.9133680555556,29.9
5.66666666666667,11.7673511791971,29.9396472354794,2.85967271607449,0.10505757654308,4,13.9133680555556,29.9
5.7,11.7666965035,30.0367178473964,2.96467424437049,0.105001528296002,4,13.9133680555556,29.9
5.73333333333333,11.7660118932862,30.1372842316437,3.06938248593529,0.104708241564804,4,13.9133680555556,29.9
5.76666666666667,11.7652969458258,30.2413321697586,3.17353031831804,0.104147832382748,4,13.9133680555556,29.9
5.8,11.76455128613,30.3488391793299,3.27690396201814,0.103373643700094,4,13.9133680555556,29.9
5.83333333333333,11.7637745404926,30.459776871288,3.37935859980431,0.102454637786171,4,13.9133680555556,29.9
5.86666666666667,11.7629663196086,30.5741128557656,3.48079603182603,0.101437432021728,4,13.9133680555556,29.9
5.9,11.7621262115794,30.6918120332473,3.58114982207075,0.10035379024472,4,13.9133680555556,29.9
5.93333333333333,11.7612537818715,30.8128374786468,3.68037541418445,0.0992255921136991,4,13.9133680555556,29.9
5.96666666666667,11.7603485784368,30.9371508611318,3.77842040821522,0.0980449940307699,4,13.9133680555556,29.9
6,11.7594101492819,31.0647109344688,3.87516961672375,0.096749208508522,4,13.9133680555556,29.9
6.03333333333333,11.7584380522504,31.195473191639,3.97055583511647,0.0953862183927274,4,13.9133680555556,29.9
6.06666666666667,11.7574318484487,31.329391862739,4.06456582134813,0.0940099862316606,4,13.9133680555556,29.9
6.1,11.7563910971509,31.4664213225749,4.15721862325663,0.0926528019084953,4,13.9133680555556,29.9
6.13333333333333,11.7553153526392,31.6065169151205,4.24855146334438,0.0913328400877553,4,13.9133680555556,29.9
6.16666666666667,11.7542041625263,31.7496353804457,4.33860867451685,0.0900572111724642,4,13.9133680555556,29.9
6.2,11.7530570686775,31.8957348201791,4.42742630519425,0.0888176306774007,4,13.9133680555556,29.9
6.23333333333333,11.751873609317,32.0447744817193,4.51503926078168,0.0876129555874288,4,13.9133680555556,29.9
