Time,x_ego,y_ego,velocity,acceleration,action,x_ped,y_ped
0,11.8,15.9,5,0,1,15.5,29.9
0.0333333333333333,11.7999987949697,16.0666076888414,4.99642261544275,-0.00357738455724732,1,15.4502170138889,29.9
0.0666666666666667,11.7999910643553,16.2330926530923,4.99264758049872,-0.00377503494402998,1,15.4008680555556,29.9
0.1,11.7999722109856,16.3994492967146,4.98873134825762,-0.00391623224109949,1,15.351953125,29.9
0.133333333333333,11.7999395861937,16.5656736235462,4.98471437477954,-0.00401697347807861,1,15.3034722222222,29.9
0.166666666666667,11.7998921529576,16.731762784006,4.98062564651096,-0.00408872826858353,1,15.2554253472222,29.9
0.2,11.7998300724449,16.8977147503151,4.97648593154139,-0.004139714969571,1,15.2078125,29.9
0.233333333333333,11.7997543004184,17.0635280838177,4.9723101120072,-0.00417581953418811,1,15.1606336805556,29.9
0.266666666666667,11.7996662451667,17.2292017682607,4.96810885504278,-0.00420125696442586,1,15.1138888888889,29.9
0.3,11.7995675068291,17.3947350902947,4.96388980864119,-0.00421904640158832,1,15.067578125,29.9
0.333333333333333,11.7994596946918,17.5601275537825,4.9596584572694,-0.00423135137178665,1,15.0217013888889,29.9
0.366666666666667,11.7993443063319,17.7253788183255,4.95541873431662,-0.00423972295277775,1,14.9762586805556,29.9
0.4,11.799222649479,17.8904886551504,4.95117346083365,-0.00424527348297676,1,14.93125,29.9
0.433333333333333,11.7990957912305,18.0554569154507,4.94692466005147,-0.00424880078217171,1,14.8866753472222,29.9
0.466666666666667,11.7989645260919,18.2202835076691,4.94267378291915,-0.0042508771323293,1,14.8425347222222,29.9
0.5,11.7988293608452,18.3849683812022,4.93842186982132,-0.00425191309782669,1,14.798828125,29.9
0.533333333333333,11.798690518217,18.5495115147202,4.93416966651162,-0.00425220330969811,1,14.7555555555556,29.9
0.566666666666667,11.7985479618787,18.7139129078039,4.92991770722845,-0.00425195928316757,1,14.7127170138889,29.9
0.6,11.7984014429359,18.8781725749668,4.92566637431636,-0.00425133291209523,1,14.6703125,29.9
0.633333333333333,11.7982505641015,19.0422905413909,4.92141594103718,-0.0042504332791804,1,14.6283420138889,29.9
0.666666666666667,11.798094853826,19.2062668398918,4.91716660234532,-0.00424933869186184,1,14.5868055555556,29.9
0.7,11.7979338402032,19.3701015087643,4.91291849703216,-0.00424810531315867,1,14.545703125,29.9
0.733333333333333,11.7977671142643,19.5337945902539,4.9086717236742,-0.00424677335796098,1,14.5050347222222,29.9
0.766666666666667,11.7975943743825,19.6973461294698,4.90442635213198,-0.00424537154221483,1,14.4648003472222,29.9
0.8,11.7974154473305,19.8607561736066,4.90018243185177,-0.00424392028021092,1,14.425,29.9
0.833333333333333,11.7972302860541,20.0240247713808,4.89593999785759,-0.00424243399418511,1,14.3856336805556,29.9
0.866666666666667,11.7970389483524,20.1871519726138,4.89169907505463,-0.00424092280295341,1,14.3467013888889,29.9
0.9,11.7968415635015,20.3501378279202,4.88745968127946,-0.00423939377516991,1,14.308203125,29.9
0.933333333333333,11.7966382949401,20.5129823884702,4.8832218294141,-0.00423785186536385,1,14.2701388888889,29.9
0.966666666666667,11.7964293064363,20.6756857058113,4.87898552881163,-0.00423630060246882,1,14.2325086805556,29.9
1,11.7962147370816,20.8382478317345,4.87475078623704,-0.00423474257458878,1,14.1953125,29.9
1.03333333333333,11.7959946876626,21.0006688181797,4.87051760649002,-0.00423317974701654,1,14.1585503472222,29.9
1.06666666666667,11.7957692181579,21.1629487171719,4.86628599283724,-0.0042316136527818,1,14.1222222222222,29.9
1.1,11.795538353918,21.3250875807813,4.86205594734039,-0.00423004549685047,1,14.086328125,29.9
1.13333333333333,11.7953020968566,21.4870854611018,4.85782747112921,-0.0042284762111775,1,14.0508680555556,29.9
1.16666666666667,11.7950604378178,21.64894241024,4.85360056464062,-0.00422690648859803,1,14.0158420138889,29.9
1.2,11.7948133669969,21.8106584803103,4.84937522782787,-0.00422533681274384,1,13.98125,29.9
1.23333333333333,11.7945608805516,21.972233723431,4.84515146033601,-0.0042237674918626,1,13.9470920138889,29.9
1.26666666666667,11.7943029829364,22.1336681917198,4.84092926163807,-0.00422219869793494,1,13.9133680555556,29.9
1.3,11.7940396856758,22.2949619372871,4.83670863112943,-0.00422063050864452,1,13.9133680555556,29.9
1.33333333333333,11.7937710040187,22.456115012229,4.83248956818161,-0.00421906294782382,1,13.9133680555556,29.9
1.36666666666667,11.7934969531162,22.6171274686201,4.82827207216207,-0.00421749601953625,1,13.9133680555556,29.9
1.4,11.7932175450922,22.7779993585073,4.82405614242997,-0.00421592973209872,1,13.9133680555556,29.9
1.43333333333333,11.7929327878071,22.9387307339078,4.81984177831965,-0.00421436411032428,1,13.9133680555556,29.9
1.46666666666667,11.7926426854483,23.099321646808,4.81562897912274,-0.0042127991969112,1,13.9133680555556,29.9
1.5,11.7923472405161,23.2597721491662,4.8114177440769,-0.00421123504584031,1,13.9133680555556,29.9
1.53333333333333,11.7920464564295,23.4200822929156,4.80720807236506,-0.0042096717118385,1,13.9133680555556,29.9
1.56666666666667,11.7917403399102,23.5802521299682,4.8029999631252,-0.00420810923986181,1,13.9133680555556,29.9
1.6,11.7914289024792,23.740281712217,4.79879341546759,-0.00420654765760453,1,13.9133680555556,29.9
1.63333333333333,11.7911121607247,23.9001710915367,4.79458842849485,-0.00420498697273608,1,13.9133680555556,29.9
1.66666666666667,11.7907901353752,24.0599203197824,4.79038500131995,-0.00420342717490918,1,13.9133680555556,29.9
1.7,11.7904628495156,24.2195294487872,4.78618313307843,-0.00420186824151259,1,13.9133680555556,29.9
1.73333333333333,11.790130326466,24.3789985303583,4.78198282293315,-0.00420031014527922,1,13.9133680555556,29.9
1.76666666666667,11.7897925878572,24.5383276162737,4.77778407007146,-0.00419875286169269,1,13.9133680555556,29.9
1.8,11.7894496523243,24.6975167582798,4.77358687369699,-0.00419719637447447,1,13.9133680555556,29.9
1.83333333333333,11.789101535031,24.8565660080901,4.76939123301883,-0.00419564067816047,1,13.9133680555556,29.9
1.86666666666667,11.7887482480118,25.0154754173856,4.76519714724114,-0.00419408577768632,1,13.9133680555556,29.9
1.9,11.7883898011277,25.1742450378159,4.76100461555559,-0.00419253168554512,1,13.9133680555556,29.9
1.93333333333333,11.7880262033198,25.332874921002,4.75681363713791,-0.00419097841768057,1,13.9133680555556,29.9
1.96666666666667,11.7876574638259,25.4913651185379,4.75262421114866,-0.00418942598925121,1,13.9133680555556,29.9
2,11.7872835930906,25.649715681993,4.74843633673736,-0.00418787441130064,1,13.9133680555556,29.9
2.03333333333333,11.7869046032157,25.8079266629128,4.74425001304842,-0.00418632368894389,1,13.9133680555556,29.9
2.06666666666667,11.7865205079334,25.9659981128191,4.74006523922719,-0.00418477382123328,1,13.9133680555556,29.9
2.1,11.7861313222009,26.1239300832096,4.73588201442476,-0.00418322480242495,1,13.9133680555556,29.9
2.13333333333333,11.7857370615854,26.2817226255561,4.73170033780064,-0.00418167662412294,1,13.9133680555556,29.9
2.16666666666667,11.7853377416287,26.4393757913042,4.72752020852302,-0.00418012927761779,1,13.9133680555556,29.9
2.2,11.7849333773497,26.5968896318712,4.72334162576715,-0.00417858275586891,1,13.9133680555556,29.9
2.23333333333333,11.7845239829789,26.7542641986462,4.71916458871248,-0.00417703705466632,1,13.9133680555556,29.9
2.26666666666667,11.7841095719458,26.9114995429899,4.71498909653955,-0.00417549217293622,1,13.9133680555556,29.9
2.3,11.7836901570733,27.0685957162346,4.71081514842735,-0.00417394811219474,1,13.9133680555556,29.9
2.33333333333333,11.7832657508891,27.2255527696856,4.70664274355186,-0.00417240487549364,1,13.9133680555556,29.9
2.36666666666667,11.7828363659533,27.3823707546213,4.70247188108564,-0.00417086246621867,1,13.9133680555556,29.9
2.4,11.7824020151133,27.539049722294,4.69830256019863,-0.00416932088700772,1,13.9133680555556,29.9
2.43333333333333,11.781962711635,27.6955897239305,4.69413478005954,-0.00416778013909802,1,13.9133680555556,29.9
2.46666666666667,11.7815184691959,27.8519908107318,4.6899685398374,-0.00416624022213608,1,13.9133680555556,29.9
2.5,11.781069301766,28.0082530338732,4.68580383870298,-0.00416470113441658,1,13.9133680555556,29.9
2.53333333333333,11.7806152234266,28.1643764445036,4.68164067582956,-0.00416316287342511,1,13.9133680555556,29.9
2.56666666666667,11.7801562481826,28.3203610937451,4.67747905039308,-0.00416162543648202,1,13.9133680555556,29.9
2.6,11.7796923898184,28.4762070326927,4.67331896157176,-0.00416008882131802,1,13.9133680555556,29.9
2.63333333333333,11.7792236618268,28.6319143124141,4.66916040854533,-0.00415855302642765,1,13.9133680555556,29.9
2.66666666666667,11.7787500774183,28.7874829839499,4.66500339049416,-0.0041570180511723,1,13.9133680555556,29.9
2.7,11.7782716495948,28.9429130983133,4.66084790659851,-0.00415548389565057,1,13.9133680555556,29.9
2.73333333333333,11.7777883912602,29.098204706491,4.65669395603811,-0.00415395056039625,1,13.9133680555556,29.9
2.76666666666667,11.7773003153346,29.2533578594431,4.65254153799209,-0.00415241804601774,1,13.9133680555556,29.9
2.8,11.7768074348422,29.4083726081035,4.64839065163921,-0.00415088635288097,1,13.9133680555556,29.9
2.83333333333333,11.7763097629567,29.5632490033802,4.64424129615829,-0.00414935548091755,1,13.9133680555556,29.9
2.86666666666667,11.775807312999,29.7179870961549,4.64009347072874,-0.00414782542955816,1,13.9133680555556,29.9
2.9,11.7753000983957,29.8725869372836,4.63594717453093,-0.00414629619780982,1,13.9133680555556,29.9
2.93333333333333,11.7747881326146,30.0270485775958,4.63180240674648,-0.00414476778444151,1,13.9133680555556,29.9
2.96666666666667,11.7742714290981,30.1813720678944,4.62765916655832,-0.00414324018816359,1,13.9133680555556,29.9
3,11.7737500012087,30.3355574589562,4.62351745315048,-0.00414171340784009,1,13.9133680555556,29.9
3.03333333333333,11.7732238622008,30.4896048015309,4.6193772657079,-0.00414018744258282,1,13.9133680555556,29.9
3.06666666666667,11.7726930252192,30.6435141463417,4.61523860341611,-0.0041386622917905,1,13.9133680555556,29.9
3.1,11.7721575033204,30.7972855440853,4.611101465461,-0.00413713795511228,1,13.9133680555556,29.9
3.13333333333333,11.7716173095093,30.9509190454319,4.60696585102866,-0.00413561443233768,1,13.9133680555556,29.9
3.16666666666667,11.7710724567766,31.1044147010253,4.60283175930536,-0.00413409172329526,1,13.9133680555556,29.9
3.2,11.7705229581306,31.2577725614833,4.59869918947763,-0.00413256982773103,1,13.9133680555556,29.9
3.23333333333333,11.7699688266144,31.4109926773973,4.59456814073239,-0.00413104874524528,1,13.9133680555556,29.9
3.26666666666667,11.7694100753076,31.5640750993329,4.5904386122571,-0.00412952847528203,1,13.9133680555556,29.9
3.3,11.7688467173145,31.7170198778294,4.58631060323997,-0.00412800901713339,1,13.9133680555556,29.9
3.33333333333333,11.768278765744,31.8698270634,4.58218411286996,-0.00412649037001334,1,13.9133680555556,29.9
3.36666666666667,11.7677062336881,32.0224967065316,4.57805914033684,-0.0041249725331145,1,13.9133680555556,29.9
3.4,11.7671291342039,32.175028857685,4.57393568483117,-0.00412345550567483,1,13.9133680555556,29.9
3.43333333333333,11.7665474803037,32.3274235672945,4.56981374554415,-0.00412193928701576,1,13.9133680555556,29.9
3.46666666666667,11.7659612849536,32.4796808857685,4.5656933216676,-0.00412042387655109,1,13.9133680555556,29.9
3.5,11.7653705610808,32.6318008634888,4.56157441239383,-0.00411890927377456,1,13.9133680555556,29.9
3.53333333333333,11.7647753215845,32.7837835508112,4.55745701691558,-0.00411739547824475,1,13.9133680555556,29.9
3.56666666666667,11.7641755793488,32.9356289980653,4.55334113442607,-0.00411588248951045,1,13.9133680555556,29.9
3.6,11.7635713472531,33.0873372555549,4.54922676411896,-0.00411437030711426,1,13.9133680555556,29.9
3.63333333333333,11.7629626381782,33.2389083735575,4.54511390518842,-0.00411285893054014,1,13.9133680555556,29.9
3.66666666666667,11.7623494650064,33.3903424023246,4.54100255682919,-0.004111348359225,1,13.9133680555556,29.9
3.7,11.7617318406182,33.5416393920819,4.53689271823664,-0.00410983859254976,1,13.9133680555556,29.9
3.73333333333333,11.7611097778855,33.6927993930291,4.53278438860676,-0.0041083296298785,1,13.9133680555556,29.9
3.76666666666667,11.7604832896638,33.8438224553396,4.52867756713621,-0.00410682147055663,1,13.9133680555556,29.9
3.8,11.7598523887865,33.9947086291612,4.52457225302225,-0.00410531411395443,1,13.9133680555556,29.9
3.83333333333333,11.7592170880612,34.1454579646153,4.52046844546279,-0.00410380755946704,1,13.9133680555556,29.9
3.86666666666667,11.7585774002694,34.2960705117977,4.51636614365627,-0.00410230180651894,1,13.9133680555556,29.9
3.9,11.7579333381682,34.4465463207777,4.5122653468017,-0.00410079685457188,1,13.9133680555556,29.9
3.93333333333333,11.7572849144948,34.5968854415992,4.5081660540986,-0.00409929270309828,1,13.9133680555556,29.9
3.96666666666667,11.7566321419706,34.7470879242799,4.50406826474702,-0.00409778935157767,1,13.9133680555556,29.9
4,11.7559750333049,34.8971538188117,4.49997197794753,-0.00409628679948426,1,13.9133680555556,29.9
4.03333333333333,11.755313601197,35.0470831751606,4.49587719290126,-0.00409478504627359,1,13.9133680555556,29.9
4.06666666666667,11.7546478583367,35.1968760432667,4.49178390880988,-0.00409328409138165,1,13.9133680555556,29.9
4.1,11.7539778174029,35.3465324730445,4.48769212487565,-0.00409178393423204,1,13.9133680555556,29.9
4.13333333333333,11.7533034910616,35.4960525143826,4.48360184030142,-0.00409028457423055,1,13.9133680555556,29.9
4.16666666666667,11.752624891963,35.6454362171436,4.47951305429063,-0.00408878601079099,1,13.9133680555556,29.9
4.2,11.7519420327396,35.7946836311646,4.4754257660473,-0.00408728824332272,1,13.9133680555556,29.9
4.23333333333333,11.7512549260051,35.9437948062568,4.47133997477605,-0.00408579127125552,1,13.9133680555556,29.9
4.26666666666667,11.7505635843538,36.0927697922055,4.46725567968203,-0.00408429509401831,1,13.9133680555556,29.9
4.3,11.7498680203614,36.2416086387703,4.46317287997097,-0.0040827997110604,1,13.9133680555556,29.9
4.33333333333333,11.7491682465865,36.3903113956853,4.45909157484914,-0.0040813051218338,1,13.9133680555556,29.9
4.36666666666667,11.7484642755719,36.5388781126587,4.45501176352334,-0.00407981132579227,1,13.9133680555556,29.9
4.4,11.747756119846,36.6873088393729,4.45093344520095,-0.00407831832239225,1,13.9133680555556,29.9
4.43333333333333,11.7470437919236,36.8356036254848,4.44685661908987,-0.0040768261110804,1,13.9133680555556,29.9
4.46666666666667,11.7463273043058,36.9837625206257,4.44278128439858,-0.0040753346912954,1,13.9133680555556,29.9
4.5,11.74560666948,37.1317855744012,4.4387074403361,-0.00407384406247679,1,13.9133680555556,29.9
4.53333333333333,11.7448818999189,37.2796728363912,4.43463508611204,-0.00407235422405527,1,13.9133680555556,29.9
4.56666666666667,11.7441530080797,37.4274243561501,4.43056422093658,-0.00407086517546773,1,13.9133680555556,29.9
4.6,11.7434200064033,37.5750401832066,4.42649484402043,-0.00406937691614218,1,13.9133680555556,29.9
4.63333333333333,11.7426829073141,37.7225203670641,4.42242695457491,-0.00406788944552261,1,13.9133680555556,29.9
4.66666666666667,11.7419417232194,37.8698649572,4.41836055181186,-0.00406640276304682,1,13.9133680555556,29.9
4.7,11.7411964665102,38.0170740030666,4.4142956349437,-0.0040649168681659,1,13.9133680555556,29.9
4.73333333333333,11.7404471495614,38.1641475540903,4.41023220318337,-0.00406343176032831,1,13.9133680555556,29.9
4.76666666666667,11.7396937847323,38.3110856596722,4.40617025574439,-0.00406194743897892,1,13.9133680555556,29.9
4.8,11.738936384367,38.457888369188,4.40210979184081,-0.00406046390357684,1,13.9133680555556,29.9
4.83333333333333,11.738174960795,38.6045557319877,4.39805081068725,-0.00405898115356429,1,13.9133680555556,29.9
4.86666666666667,11.7374095263309,38.7510877973959,4.39399331149886,-0.00405749918838971,1,13.9133680555556,29.9
4.9,11.7366400932744,38.8974846147119,4.38993729349136,-0.00405601800750244,1,13.9133680555556,29.9
4.93333333333333,11.7358666739103,39.0437462332094,4.38588275588102,-0.00405453761034114,1,13.9133680555556,29.9
4.96666666666667,11.7350892805078,39.1898727021369,4.38182969788466,-0.00405305799635425,1,13.9133680555556,29.9
5,11.7343079253205,39.3358640707174,4.37777811871968,-0.00405157916498311,1,13.9133680555556,29.9
5.03333333333333,11.7335226205861,39.4817203881483,4.373728017604,-0.00405010111568149,1,13.9133680555556,29.9
5.06666666666667,11.7327333785267,39.6274417036021,4.36967939375611,-0.00404862384789162,1,13.9133680555556,29.9
