Time,x_ego,y_ego,velocity,acceleration,action,x_ped,y_ped
0,11.8,15.9,5,0,1,15.5,29.9
0.0333333333333333,11.7999993819342,16.0666666666665,0,-5,3,15.4972222222222,29.9
0.0666666666666667,11.7999993819342,16.0666666666665,3.94206987317973e-06,3.94206987317973e-06,5,15.4888888888889,29.9
0.1,11.7999993819342,16.0666666666665,6.09354603844522e-05,5.69933905112724e-05,5,15.475,29.9
0.133333333333333,11.7999993817826,16.0670646599762,0.0245784227506008,0.0245174872902163,4,15.4555555555556,29.9
0.166666666666667,11.7999993812247,16.0683780267596,0.0551254592939737,0.0305470365433729,4,15.4305555555556,29.9
0.2,11.7999993793257,16.0708177387531,0.0918557205407872,0.0367302612468135,4,15.4,29.9
0.233333333333333,11.7999993736577,16.0745330009102,0.131436800641499,0.0395810801007122,4,15.3666666666667,29.9
0.266666666666667,11.7999993593106,16.0796270390603,0.174421390351509,0.0429845897100095,4,15.3333333333333,29.9
0.3,11.7999993277418,16.0861698154848,0.218245334472706,0.0438239441211967,4,15.3,29.9
0.333333333333333,11.7999992656399,16.094177998746,0.262272809016275,0.0440274745435699,4,15.2666666666667,29.9
0.366666666666667,11.799999153973,16.1036519240918,0.306153507871709,0.0438806988554335,4,15.2333333333333,29.9
0.4,11.7999989672956,16.1145829329451,0.34967148472359,0.0435179768518813,4,15.2,29.9
0.433333333333333,11.799998673362,16.1269562639105,0.392672428330407,0.0430009436068171,4,15.1666666666667,29.9
0.466666666666667,11.7999982330994,16.1407528094923,0.43504728485943,0.0423748565290222,4,15.1333333333333,29.9
0.5,11.7999976009748,16.1559503978606,0.476718731786249,0.0416714469268193,4,15.1,29.9
0.533333333333333,11.7999967257778,16.1725244082533,0.517613474333516,0.0408947425472675,4,15.0666666666667,29.9
0.566666666666667,11.7999955518128,16.1904478655646,0.557669706790456,0.0400562324569393,4,15.0333333333333,29.9
0.6,11.7999940204738,16.2096921123034,0.596848640436195,0.0391789336457392,4,15,29.9
0.633333333333333,11.7999920721429,16.230227481357,0.635128572127185,0.0382799316909902,4,14.9666666666667,29.9
0.666666666666667,11.7999896483278,16.2520237871594,0.672500088705116,0.0373715165779307,4,14.9333333333333,29.9
0.7,11.7999866939323,16.2750507330825,0.708969394338392,0.0364693056332763,4,14.9,29.9
0.733333333333333,11.7999831595311,16.2992788989767,0.744583066562488,0.0356136722240959,4,14.8666666666667,29.9
0.766666666666667,11.799979003516,16.3246806276965,0.779392688964314,0.0348096224018259,4,14.8333333333333,29.9
0.8,11.7999741939861,16.3512298274959,0.813440335774463,0.0340476468101488,4,14.8,29.9
0.833333333333333,11.7999687102612,16.3789016980619,0.846761039976991,0.033320704202528,4,14.7666666666667,29.9
0.866666666666667,11.7999625439147,16.4076725257076,0.879384605411726,0.0326235654347348,4,14.7333333333333,29.9
0.9,11.7999556992459,16.4375195272568,0.911336778560707,0.0319521731489818,4,14.7,29.9
0.933333333333333,11.799948193144,16.4684204955367,0.942617641365662,0.0312808628049542,4,14.6666666666667,29.9
0.966666666666667,11.799940054351,16.5003524696784,0.973191345338285,0.0305737039726235,4,14.6333333333333,29.9
1,11.7999313220978,16.5332914892745,1.00303654519465,0.0298451998563602,4,14.6,29.9
1.03333333333333,11.7999220441592,16.5672131055002,1.03214431811849,0.0291077729238465,4,14.5666666666667,29.9
1.06666666666667,11.7999122744263,16.6020927023806,1.06051390490924,0.0283695867907465,4,14.5333333333333,29.9
1.1,11.7999020701083,16.6379057690847,1.08815233900788,0.0276384340986373,4,14.5,29.9
1.13333333333333,11.7998914887035,16.6746281231791,1.11507212185179,0.0269197828439138,4,14.4666666666667,29.9
1.16666666666667,11.7998805849022,16.712236065609,1.14129016076356,0.0262180389117688,4,14.4333333333333,29.9
1.2,11.7998694075831,16.7507066928262,1.16684034462524,0.0255501838616863,4,14.4,29.9
1.23333333333333,11.7998579970624,16.7900184999449,1.19176782374951,0.0249274791242662,4,14.3666666666667,29.9
1.26666666666667,11.7998463828134,16.8301513872276,1.21611112633115,0.0243433025816413,4,14.3333333333333,29.9
1.3,11.7998345817898,16.8710864373215,1.23990280076534,0.0237916744341884,4,14.3,29.9
1.33333333333333,11.7998225974529,16.912805739752,1.26317080070064,0.0232679999353029,4,14.2666666666667,29.9
1.36666666666667,11.7998104195822,16.9552922551134,1.28593951406116,0.0227687133605157,4,14.2333333333333,29.9
1.4,11.7997980248991,16.9985297088908,1.30823052799903,0.0222910139378729,4,14.2,29.9
1.43333333333333,11.7997853784779,17.0425025074716,1.33006319877833,0.0218326707792986,4,14.1666666666667,29.9
1.46666666666667,11.7997724358656,17.0871956708422,1.35145507830482,0.0213918795264907,4,14.1333333333333,29.9
1.5,11.7997591457766,17.1325947622282,1.37242009924028,0.020965020935463,4,14.1,29.9
1.53333333333333,11.7997454532065,17.1786856008461,1.39295941927772,0.0205393200374335,4,14.0666666666667,29.9
1.56666666666667,11.799731302731,17.2254539885316,1.41307340520161,0.020113985923897,4,14.0333333333333,29.9
1.6,11.7997166417162,17.2728858124722,1.43276657881476,0.0196931736131476,4,14,29.9
1.63333333333333,11.7997014232401,17.3209671605438,1.452046268594,0.0192796897792362,4,13.9666666666667,29.9
1.66666666666667,11.7996856085174,17.369684397994,1.47092163988742,0.0188753712934229,4,13.9333333333333,29.9
1.7,11.7996691686516,17.419024216533,1.48940299956064,0.0184813596732232,4,13.9,29.9
1.73333333333333,11.7996520855966,17.468973663674,1.50750130069823,0.0180983011375888,4,13.8666666666667,29.9
1.76666666666667,11.7996343522785,17.5195201580499,1.52522779268743,0.0177264919891997,2,13.8333333333333,29.9
1.8,11.7996159719018,17.5706514948753,1.54259377665428,0.0173659839668425,2,13.8,29.9
1.83333333333333,11.7995969565311,17.6223558445819,1.55961043705538,0.0170166604011022,2,13.7666666666667,29.9
1.86666666666667,11.7995773251016,17.6746217468149,1.576288728201,0.0166782911456242,2,13.7333333333333,29.9
1.9,11.7995571010544,17.7274380949538,1.59263811549374,0.016349387292742,2,13.7,29.9
1.93333333333333,11.7995363098456,17.7807939267569,1.60865667460893,0.0160185591151834,2,13.6666666666667,29.9
1.96666666666667,11.7995149765337,17.8346781426597,1.62434098092108,0.0156843063121497,2,13.6333333333333,29.9
2,11.7994931235596,17.8890796094785,1.63969217890094,0.0153511979798651,2,13.6,29.9
2.03333333333333,11.7994707689342,17.9439872877349,1.65471454933851,0.0150223704375676,2,13.5666666666667,29.9
2.06666666666667,11.79944792495,17.9993903180318,1.66941447310904,0.0146999237705301,2,13.5333333333333,29.9
2.1,11.7994245974642,18.0552780779647,1.68379968473073,0.0143852116216894,2,13.5,29.9
2.13333333333333,11.7994007857478,18.1116402178639,1.69787873807132,0.0140790533405906,2,13.4666666666667,29.9
2.16666666666667,11.7993764828486,18.1684666814309,1.71166062695524,0.0137818888839156,2,13.4333333333333,29.9
2.2,11.7993516763782,18.2257477156991,1.72515451853701,0.0134938915817731,2,13.4,29.9
2.23333333333333,11.7993263496147,18.2834738735348,1.73836956849424,0.0132150499572317,2,13.3666666666667,29.9
2.26666666666667,11.7993004828005,18.3416360110122,1.751314795361,0.0129452268667567,2,13.3333333333333,29.9
2.3,11.7992740545202,18.4002252813482,1.76399899742003,0.012684202059037,2,13.3,29.9
2.33333333333333,11.7992470430546,18.4592331266034,1.77643070005835,0.0124317026383116,2,13.2666666666667,29.9
2.36666666666667,11.7992194276219,18.5186512680136,1.78861812478243,0.0121874247240872,2,13.2333333333333,29.9
2.4,11.7991911894405,18.5784716955613,1.80056917349907,0.0119510487166399,2,13.2,29.9
2.43333333333333,11.7991623125636,18.6386866568038,1.81229132860091,0.0117221551018341,2,13.1666666666667,29.9
2.46666666666667,11.7991327844605,18.6992886219954,1.82379013823909,0.0114988096381872,2,13.1333333333333,29.9
2.5,11.799102596335,18.7602702128491,1.83506886109854,0.01127872285945,2,13.1,29.9
2.53333333333333,11.7990717432259,18.8216239441519,1.84611474880505,0.0110458877065083,2,13.0666666666667,29.9
2.56666666666667,11.7990402239364,18.8833417039694,1.85690856959978,0.0107938207947229,2,13.0333333333333,29.9
2.6,11.7990080404962,18.945415051532,1.86745253461581,0.0105439650160308,2,13,29.9
2.63333333333333,11.7989751972952,19.0078359262798,1.87776264903951,0.0103101144237085,2,12.9666666666667,29.9
2.66666666666667,11.7989417002636,19.0705966935358,1.88784586205614,0.0100832130166288,2,12.9333333333333,29.9
2.7,11.7989075561129,19.1336897475378,1.89769963458554,0.0098537725293979,2,12.9,29.9
2.73333333333333,11.7988727714747,19.1971074323622,1.90732387718928,0.00962424260373762,2,12.8666666666667,29.9
2.76666666666667,11.7988373520599,19.2608421213307,1.91672037034528,0.00939649315599778,2,12.8333333333333,29.9
2.8,11.798801301966,19.3248862781379,1.92589233493922,0.00917196459394809,2,12.8,29.9
2.83333333333333,11.7987646232215,19.3892324107146,1.9348384034363,0.00894606849707724,2,12.7666666666667,29.9
2.86666666666667,11.7987273155935,19.4538729611286,1.94355755354719,0.00871915011088942,2,12.7333333333333,29.9
2.9,11.7986893765613,19.5188004313572,1.95205571186395,0.00849815831675849,2,12.7,29.9
2.93333333333333,11.7986508014489,19.5840076945962,1.96034759025282,0.00829187838886947,2,12.6666666666667,29.9
2.96666666666667,11.7986115838173,19.6494881046293,1.96844632655424,0.00809873630142555,2,12.6333333333333,29.9
3,11.7985717160893,19.7152353272996,1.97635607299502,0.00790974644077846,2,12.6,29.9
3.03333333333333,11.7985311902936,19.7812430339508,1.98407536525153,0.00771929225651102,2,12.5666666666667,29.9
3.06666666666667,11.798489998685,19.8475048881121,1.99160496910921,0.00752960385767243,2,12.5333333333333,29.9
3.1,11.7984481342968,19.9140145131575,1.99894035082469,0.00733538171548309,2,12.5,29.9
3.13333333333333,11.7984055914238,19.9807653314752,2.00607612346884,0.00713577264414722,2,12.4666666666667,29.9
3.16666666666667,11.7983623658424,20.0477506656576,2.01301121722677,0.00693509375793289,2,12.4333333333333,29.9
3.2,11.7983184549006,20.114963760424,2.01974015051623,0.00672893328945712,2,12.4,29.9
3.23333333333333,11.7982738575523,20.1823976023286,2.02625534207753,0.00651519156130442,2,12.3666666666667,29.9
3.26666666666667,11.7982285741456,20.2500450270935,2.0325553397046,0.00629999762706568,2,12.3333333333333,29.9
3.3,11.7981826060987,20.3178988954321,2.03864240606145,0.00608706635685641,2,12.3,29.9
3.33333333333333,11.7981359555831,20.3859521553174,2.04451954044887,0.00587713438741799,2,12.2666666666667,29.9
3.36666666666667,11.7980886252058,20.4541978929462,2.05019220650159,0.00567266605271843,2,12.2333333333333,29.9
3.4,11.7980406177012,20.5226294131698,2.05566788567725,0.00547567917565539,2,12.2,29.9
3.43333333333333,11.7979919356763,20.5912402912035,2.06095519677719,0.00528731109994718,2,12.1666666666667,29.9
3.46666666666667,11.7979425814188,20.660024399744,2.06606328667284,0.00510808989564815,2,12.1333333333333,29.9
3.5,11.7978925567647,20.7289759192343,2.07100141766365,0.0049381309908112,2,12.1,29.9
3.53333333333333,11.7978418630185,20.798089336857,2.07577869600351,0.00477727833986252,2,12.0666666666667,29.9
3.56666666666667,11.7977905009198,20.8673594340469,2.08040288628046,0.00462419027694905,2,12.0333333333333,29.9
3.6,11.7977384707634,20.9367810570456,2.08486824633699,0.00446536005652742,2,12,29.9
3.63333333333333,11.7976857726377,21.0063487456342,2.08916596182858,0.00429771549158797,2,11.9666666666667,29.9
3.66666666666667,11.7976324064348,21.0760568550551,2.09329352927252,0.00412756744394027,2,11.9333333333333,29.9
3.7,11.7975783718551,21.1458997356085,2.09725285301033,0.00395932373780727,2,11.9,29.9
3.73333333333333,11.7975236684614,21.2158718523165,2.10104869443467,0.00379584142434375,2,11.8666666666667,29.9
3.76666666666667,11.7974682957678,21.2859678606359,2.10468756396848,0.00363886953380499,2,11.8333333333333,29.9
3.8,11.7974122533456,21.3561826509895,2.10817694170105,0.0034893777325733,2,11.8,29.9
3.83333333333333,11.7973555409312,21.4265113715529,2.11152473937978,0.00334779767873616,2,11.7666666666667,29.9
3.86666666666667,11.7972981585187,21.4969494361872,2.11473893774092,0.00321419836113535,2,11.7333333333333,29.9
3.9,11.7972401064253,21.5674925225003,2.11782734978388,0.00308841204296328,2,11.7,29.9
3.93333333333333,11.797181385318,21.638136563593,2.12079747339006,0.00297012360617854,2,11.6666666666667,29.9
3.96666666666667,11.797121996199,21.7088777336444,2.12365591957646,0.00285844618640096,2,11.6333333333333,29.9
4,11.7970619404623,21.7797122576294,2.12639526415829,0.00273934458182978,2,11.6,29.9
4.03333333333333,11.7970012201929,21.850635809085,2.12899480850613,0.00259954434784238,2,11.5666666666667,29.9
4.06666666666667,11.7969398380852,21.9216435018911,2.13144247476304,0.00244766625690973,2,11.5333333333333,29.9
4.1,11.7968777971701,21.9927301808317,2.13373375832713,0.00229128356408781,2,11.5,29.9
4.13333333333333,11.7968151005984,22.0638906340647,2.13586943562056,0.00213567729343245,2,11.4666666666667,29.9
4.16666666666667,11.7967517514821,22.1351197390325,2.13785384072042,0.00198440509985032,2,11.4333333333333,29.9
4.2,11.7966877527893,22.2064125586888,2.13969358913964,0.00183974841922829,2,11.4,29.9
4.23333333333333,11.796623107287,22.2777644012094,2.14139664800743,0.0017030588677911,2,11.3666666666667,29.9
4.26666666666667,11.7965578175216,22.3491708533245,2.14297167099868,0.00157502299124657,2,11.3333333333333,29.9
4.3,11.7964918858292,22.4206277949703,2.1444275330137,0.00145586201502157,2,11.3,29.9
4.33333333333333,11.796425314362,22.4921314010349,2.14577301365298,0.00134548063927875,2,11.2666666666667,29.9
4.36666666666667,11.796358105122,22.5636781344714,2.14701659007669,0.00124357642370621,2,11.2333333333333,29.9
4.4,11.7962902599909,22.6352647339004,2.14816630913775,0.00114971906106209,2,11.2,29.9
4.43333333333333,11.7962217807535,22.7068881979464,2.14922971604267,0.00106340690491979,2,11.1666666666667,29.9
4.46666666666667,11.7961526691091,22.7785457678958,2.15021382254646,0.00098410650379499,2,11.1333333333333,29.9
4.5,11.7960829266734,22.8502349097741,2.15112510212581,0.000911279579343116,2,11.1,29.9
4.53333333333333,11.7960125549734,22.9219532965805,2.15196950296085,0.000844400835046777,2,11.0666666666667,29.9
4.56666666666667,11.7959415554402,22.9936987911565,2.15275247211464,0.000782969153781288,2,11.0333333333333,29.9
4.6,11.7958699294024,23.0654694299807,2.15347898621319,0.000726514098549735,2,11,29.9
4.63333333333333,11.7957976780851,23.1372634080468,2.15415358534836,0.000674599135172649,2,10.9666666666667,29.9
4.66666666666667,11.7957248026144,23.2090790648936,2.1547804079665,0.000626822618138068,2,10.9333333333333,29.9
4.7,11.7956513040275,23.2809148717927,2.15536322526211,0.000582817295617932,2,10.9,29.9
4.73333333333333,11.7955771832861,23.352769420061,2.15590547413819,0.000542248876079121,2,10.8666666666667,29.9
4.76666666666667,11.7955024412903,23.4246414104403,2.15641028817848,0.000504814040283463,2,10.8333333333333,29.9
4.8,11.7954270788905,23.4965296434712,2.15688052634414,0.00047023816566627,2,10.8,29.9
4.83333333333333,11.7953510968942,23.5684330107848,2.15731879928902,0.000438272944878637,2,10.7666666666667,29.9
4.86666666666667,11.7952744960684,23.6403504872314,2.15772749330782,0.000408694018795508,2,10.7333333333333,29.9
4.9,11.7951972771364,23.7122811237693,2.15810879200815,0.000381298700332877,2,10.7,29.9
4.93333333333333,11.7951194407724,23.78422404104,2.15846469584274,0.000355903834586169,2,10.6666666666667,29.9
4.96666666666667,11.7950409875949,23.8561784235607,2.1587970396621,0.000332343819362979,2,10.6333333333333,29.9
5,11.7949619181627,23.9281435144715,2.15910750845775,0.000310468795648777,2,10.6,29.9
5.03333333333333,11.7948822329743,24.0001186107795,2.15939765146575,0.00029014300800112,2,10.5666666666667,29.9
5.06666666666667,11.7948019324725,24.0721030590476,2.15966889479445,0.000271243328703097,2,10.5333333333333,29.9
5.1,11.7947210170527,24.1440962514823,2.15992255273033,0.000253657935876284,2,10.5,29.9
5.13333333333333,11.7946394870752,24.2160976223783,2.16015983786413,0.000237285133805276,2,10.4666666666667,29.9
5.16666666666667,11.7945573428783,24.2881066448821,2.16038187016695,0.000222032302819475,2,10.4333333333333,29.9
5.2,11.7944745847898,24.3601228280432,2.16058968513308,0.000207814966123099,2,10.4,29.9
5.23333333333333,11.7943912131355,24.4321457141225,2.1607842410944,0.000194555961323672,2,10.3666666666667,29.9
5.26666666666667,11.7943072282438,24.5041748761312,2.16096642579957,0.000182184705171728,2,10.3333333333333,29.9
5.3,11.7942226304449,24.5762099155793,2.16113706234053,0.000170636540955726,2,10.3,29.9
5.33333333333333,11.794137420067,24.6482504604103,2.16129691449947,0.000159852158939877,2,10.2666666666667,29.9
5.36666666666667,11.7940515974289,24.7202961631067,2.16144669158072,0.000149777081248192,2,10.2333333333333,29.9
5.4,11.7939651628333,24.7923466989477,2.16158705278425,0.000140361203536443,2,10.2,29.9
5.43333333333333,11.7938781165599,24.8644017644064,2.16171861117095,0.000131558386697872,2,10.1666666666667,29.9
5.46666666666667,11.7937904588623,24.936461075673,2.16184193726359,0.000123326092635878,2,10.1333333333333,29.9
5.5,11.7937021899667,25.0085243672917,2.16195756232245,0.000115625058862978,2,10.1,29.9
5.53333333333333,11.7936133097952,25.080591661946,2.16209998235891,0.000142420036458812,2,10.0666666666667,29.9
5.56666666666667,11.7935238138789,25.1526671965402,2.16251888024136,0.000418897882456193,2,10.0333333333333,29.9
5.6,11.7934334566441,25.2247674881449,2.16365019778083,0.00113131753946361,2,10,29.9
5.63333333333333,11.7933408982317,25.2969221086978,2.1658290580094,0.0021788602285735,2,9.96666666666667,29.9
5.66666666666667,11.7932439097018,25.3691708951246,2.16935306058499,0.00352400257559049,2,9.93333333333333,29.9
5.7,11.7931403365301,25.4415636063405,2.17450054488644,0.00514748430144785,2,9.9,29.9
5.73333333333333,11.7930275786861,25.5141575764256,2.18146524076702,0.00696469588057802,2,9.86666666666667,29.9
5.76666666666667,11.7929027995923,25.5870172686728,2.19048927571338,0.00902403494636728,2,9.83333333333334,29.9
5.8,11.792763842448,25.6602160860954,2.20186044418796,0.0113711684745792,2,9.8,29.9
5.83333333333333,11.792608845398,25.7338367324819,2.2158506932597,0.0139902490717336,2,9.76666666666667,29.9
5.86666666666667,11.7924369937855,25.8079719232225,2.23279730612284,0.0169466128631419,2,9.73333333333333,29.9
5.9,11.7922486364048,25.8827266065,2.2530899694102,0.0202926632873583,4,9.7,29.9
5.93333333333333,11.7920450654197,25.958219300808,2.27715277191787,0.0240628025076677,4,9.66666666666667,29.9
5.96666666666667,11.7918282371853,26.0345827144774,2.30540529389665,0.0282525219787848,4,9.63333333333333,29.9
6,11.7916004638708,26.1119637951948,2.33829105765856,0.0328857637619127,4,9.6,29.9
6.03333333333333,11.7913641013985,26.19052460492,2.37626518768775,0.0379741300291898,4,9.56666666666667,29.9
6.06666666666667,11.7911212604049,26.270441930691,2.41974410069715,0.0434789130094004,4,9.53333333333333,29.9
6.1,11.7908735624889,26.3519044403709,2.46900804546605,0.0492639447688976,4,9.5,29.9
6.13333333333333,11.7906219601045,26.4351065635711,2.52410658844731,0.0550985429812583,4,9.46666666666667,29.9
6.16666666666667,11.7903666319842,26.5202399475047,2.58483162745884,0.0607250390115341,4,9.43333333333333,29.9
6.2,11.790106967168,26.6074859105176,2.65078370875496,0.0659520812961132,4,9.4,29.9
6.23333333333333,11.7898416473017,26.6970102509783,2.72144052473537,0.0706568159804171,4,9.36666666666667,29.9
6.26666666666667,11.7895688011046,26.7889599868075,2.79620597718072,0.0747654524453423,4,9.33333333333333,29.9
6.3,11.7892862037136,26.8834616416802,2.87445070483708,0.0782447276563669,4,9.3,29.9
6.33333333333333,11.7889914941897,26.9806207051061,2.95555277504524,0.0811020702081557,4,9.26666666666667,29.9
6.36666666666667,11.7886823819567,27.0805227869673,3.03894382477914,0.0833910497339021,4,9.23333333333333,29.9
6.4,11.7883568188765,27.1832355044833,3.12411256829424,0.085168743515097,4,9.2,29.9
6.43333333333333,11.7880131198548,27.2888103789332,3.21060435091659,0.0864917826223541,4,9.16666666666667,29.9
