Time,x_ego,y_ego,velocity,acceleration,action,x_ped,y_ped
0,11.8,8.9,7,0,1,15.5,29.9
0.0333333333333333,11.7999983534839,9.13327037939331,6.99615578086957,-0.00384421913043465,1,15.5,29.9
0.0666666666666667,11.7999880512244,9.36640659877197,6.99196948588594,-0.00418629498362311,1,15.5,29.9
0.1,11.7999635172824,9.59940075492544,6.98769503770773,-0.00427444817820799,1,15.5,29.9
0.133333333333333,11.7999218602188,9.83225378371221,6.98349776040608,-0.00419727730165143,1,15.5,29.9
0.166666666666667,11.7998620716684,10.0649678755031,6.97935602410574,-0.00414173630034664,1,15.5,29.9
0.2,11.7997843082124,10.2975446075559,6.97525432455674,-0.00410169954899509,1,15.5,29.9
0.233333333333333,11.7996893412566,10.5299851178947,6.97118155184503,-0.0040727727117158,1,15.5,29.9
0.266666666666667,11.7995781930783,10.7622902299379,6.96712974705472,-0.00405180479030598,1,15.5,29.9
0.3,11.7994519327485,10.9944605417806,6.96309320923166,-0.00403653782305469,1,15.5,29.9
0.333333333333333,11.7993115841428,11.2264964901331,6.95906785460413,-0.00402535462753839,1,15.5,29.9
0.366666666666667,11.7991580959195,11.4583983961007,6.95505075743688,-0.00401709716724419,1,15.5,29.9
0.4,11.7989923337048,11.69016649796,6.95103982137006,-0.00401093606681968,1,15.5,29.9
0.433333333333333,11.7988150707562,11.921800974623,6.9470335442371,-0.00400627713296497,1,15.5,29.9
0.466666666666667,11.7986269691103,12.1533019624319,6.94303084971183,-0.00400269452526292,1,15.5,29.9
0.5,11.7984285547377,12.3846695671801,6.93903096669155,-0.00399988302028476,1,15.5,29.9
0.533333333333333,11.798220195881,12.6159038727167,6.93503334279368,-0.0039976238978694,1,15.5,29.9
0.566666666666667,11.7980020939076,12.8470049471111,6.93103758227398,-0.0039957605197003,1,15.5,29.9
0.6,11.7977742923163,13.0779728470769,6.92704340147401,-0.00399418079997282,1,15.5,29.9
0.633333333333333,11.7975367042054,13.3088076211551,6.92305059688358,-0.00399280459042384,1,15.5,29.9
0.666666666666667,11.7972891535619,13.5395093120111,6.91905902229244,-0.00399157459114097,1,15.5,29.9
0.7,11.7970314225696,13.7700779580986,6.91506857248291,-0.00399044980953445,1,15.5,29.9
0.733333333333333,11.7967632963499,14.0005135948664,6.91107917161346,-0.00398940086944677,1,15.5,29.9
0.766666666666667,11.7964845979495,14.2308162556314,6.90709076495046,-0.00398840666300515,1,15.5,29.9
0.8,11.7961952092696,14.4609859722086,6.90310331297805,-0.00398745197241013,1,15.5,29.9
0.833333333333333,11.7958950770387,14.6910227753571,6.89911678718981,-0.003986525788231,1,15.5,29.9
0.866666666666667,11.7955842059729,14.9209266950936,6.89513116706468,-0.00398562012513715,1,15.5,29.9
0.9,11.7952626433235,15.1506977609058,6.89114643787477,-0.003984729189912,1,15.5,29.9
0.933333333333333,11.7949304597924,15.3803360018971,6.88716258907943,-0.00398384879533786,1,15.5,29.9
0.966666666666667,11.7945877313974,15.6098414468826,6.8831796131379,-0.00398297594152996,1,15.5,29.9
1,11.7942345256009,15.8392141244554,6.87919750462917,-0.0039821085087306,1,15.5,29.9
1.03333333333333,11.7938708933482,16.0684540630341,6.87521625960507,-0.00398124502409569,1,15.5,29.9
1.06666666666667,11.7934968670313,16.2975612908992,6.87123587512502,-0.00398038448005078,1,15.5,29.9
1.1,11.7931116330352,16.5265358350632,6.86725637010539,-0.00397950501962896,1,15.5,29.9
1.13333333333333,11.7927116554385,16.7553777183876,6.86327775246962,-0.00397861763577634,1,15.5,29.9
1.16666666666667,11.7922941034502,16.9840869640537,6.85930000636202,-0.00397774610759516,1,15.5,29.9
1.2,11.7918575013073,17.2126635966867,6.85532311822127,-0.0039768881407527,1,15.5,29.9
1.23333333333333,11.7914013376118,17.4411076420555,6.85134707732803,-0.00397604089323877,1,15.5,29.9
1.26666666666667,11.7909257080647,17.6694191267627,6.84737187686386,-0.00397520046417021,1,15.5,29.9
1.3,11.7904310364077,17.8975980779822,6.84339751396299,-0.00397436290086794,1,15.5,29.9
1.33333333333333,11.7899178854411,18.1256445232617,6.83942398874465,-0.00397352521834016,1,15.5,29.9
1.36666666666667,11.7893868473704,18.3535584903859,6.83545130294543,-0.00397268579922017,1,15.5,29.9
1.4,11.7888384912512,18.5813400072892,6.83147945873164,-0.00397184421379304,1,15.5,29.9
1.43333333333333,11.78827334332,18.8089891019969,6.82750845796867,-0.00397100076297008,1,15.5,29.9
1.46666666666667,11.787691096493,19.0365058009149,6.8235383329175,-0.00397012505116301,1,15.5,29.9
1.5,11.7870888250267,19.2638901246083,6.81956909697605,-0.00396923594145271,1,15.5,29.9
1.53333333333333,11.7864633806933,19.4911420922556,6.81560076398037,-0.00396833299567856,1,15.4777777777778,29.9
1.56666666666667,11.7858101226663,19.7182617184983,6.81163333674991,-0.00396742723046017,1,15.4111111111111,29.9
1.6,11.7851251523825,19.9452490181337,6.80766682008744,-0.00396651666247649,1,15.3,29.9
1.63333333333333,11.7844038415823,20.1721040024932,6.80370120937096,-0.00396561071647916,1,15.1698412698413,29.9
1.66666666666667,11.7836434095071,20.398826685706,6.79973645569434,-0.00396475367662052,1,15.0460317460317,29.9
1.7,11.7828430187753,20.6254170858155,6.79577252005707,-0.00396393563726249,1,14.9285714285714,29.9
1.73333333333333,11.7820030502212,20.8518752238631,6.79180937867034,-0.00396314138673137,1,14.8174603174603,29.9
1.76666666666667,11.7811245547543,21.0782011231431,6.78784702302912,-0.00396235564121916,1,14.7126984126984,29.9
1.8,11.7802088867929,21.3043948086233,6.7838854557994,-0.00396156722972218,1,14.6142857142857,29.9
1.83333333333333,11.7792574860698,21.5304563064937,6.77992468545902,-0.00396077034038544,1,14.5222222222222,29.9
1.86666666666667,11.7782717598373,21.7563856438008,6.77596472194929,-0.00395996350972894,1,14.4365079365079,29.9
1.9,11.7772530201794,21.9821828481224,6.77200557419836,-0.00395914775092798,1,14.3571428571429,29.9
1.93333333333333,11.7762024439361,22.2078479472508,6.76804724932075,-0.00395832487760561,1,14.284126984127,29.9
1.96666666666667,11.7751210386,22.4333809688747,6.76408975283824,-0.00395749648250998,1,14.2174603174603,29.9
2,11.7740096111081,22.6587819402731,6.76013308925661,-0.0039566635816346,1,14.1571428571429,29.9
2.03333333333333,11.7728687447567,22.8840508880551,6.75617726254265,-0.003955826713959,1,14.1031746031746,29.9
2.06666666666667,11.7716987918919,23.1091878379824,6.75222227630412,-0.00395498623853463,1,14.0555555555556,29.9
2.1,11.7704998877247,23.3341928149066,6.74826813368351,-0.00395414262060623,1,14.0142857142857,29.9
2.13333333333333,11.7692719857137,23.5590658428274,6.744314837094,-0.00395329658951038,1,13.9793650793651,29.9
2.16666666666667,11.7680149097077,23.7838069450593,6.74036238795271,-0.0039524491412859,1,13.9507936507936,29.9
2.2,11.7667284142497,24.0084161444718,6.73641078653159,-0.00395160142111983,1,13.9285714285714,29.9
2.23333333333333,11.7654122430564,24.2328934637553,6.73246003198451,-0.00395075454708671,1,13.9126984126984,29.9
2.26666666666667,11.7640661768041,24.4572389256671,6.72851012254957,-0.00394990943493934,1,13.9031746031746,29.9
2.3,11.7626900643546,24.6814525532163,6.72456105588115,-0.00394906666841699,1,13.9,29.9
2.33333333333333,11.7612838354499,24.9055343697673,6.72061282944035,-0.00394822644080328,1,13.9,29.9
2.36666666666667,11.7598474966514,25.129484399058,6.71666544086531,-0.00394738857503363,1,13.9,29.9
2.4,11.7583811150703,25.3533026651462,6.71271888825321,-0.00394655261210719,1,13.9,29.9
2.43333333333333,11.7568847957881,25.5769891923103,6.70877317031045,-0.00394571794275311,1,13.9,29.9
2.46666666666667,11.7553586587683,25.8005440049334,6.7048282863617,-0.00394488394874948,1,13.9,29.9
2.5,11.7538028198068,26.023967127398,6.70088423624038,-0.00394405012132726,1,13.9,29.9
2.53333333333333,11.7522173781666,26.2472585840096,6.69694102010643,-0.00394321613395032,1,13.9,29.9
2.56666666666667,11.7506024115298,26.470418398959,6.69299863824452,-0.00394238186190954,1,13.9,29.9
2.6,11.7489579772269,26.6934465963206,6.68905709088907,-0.00394154735544738,1,13.9,29.9
2.63333333333333,11.7472841176611,26.9163432000782,6.68511637810624,-0.0039407127828337,1,13.9,29.9
2.66666666666667,11.7455808674965,27.1391082341651,6.68117649974334,-0.00393987836289433,1,13.9,29.9
2.7,11.7438482604524,27.3617417225058,6.67723745543917,-0.00393904430416825,1,13.9,29.9
2.73333333333333,11.7420863342203,27.5842436890478,6.67329924467711,-0.00393821076206269,1,13.9,29.9
2.76666666666667,11.7402951328511,27.8066141577793,6.66936186685827,-0.0039373778188363,1,13.9,29.9
2.8,11.7384747067329,28.0288531527309,6.6654253213733,-0.00393654548497668,1,13.9,29.9
2.83333333333333,11.7366251108157,28.2509606979648,6.66148960765684,-0.00393571371645329,1,13.9,29.9
2.86666666666667,11.7347464019956,28.4729368175571,6.65755472521684,-0.00393488243999851,1,13.9,29.9
2.9,11.7328386365427,28.6947815355795,6.65362067363811,-0.00393405157873428,1,13.9,29.9
2.93333333333333,11.7309018682242,28.9164948760848,6.64968745256599,-0.00393322107212324,1,13.9,29.9
2.96666666666667,11.7289361474479,29.1380768630996,6.64575506167901,-0.00393239088697683,1,13.9,29.9
3,11.7269415214194,29.3595275206245,6.64182350065989,-0.00393156101911885,1,13.9,29.9
3.03333333333333,11.7249180350589,29.5808468726402,6.63789276917233,-0.00393073148755807,1,13.9,29.9
3.06666666666667,11.722865732294,29.8020349431179,6.63396286684791,-0.00392990232442259,1,13.9,29.9
3.1,11.7207846573365,30.0230917560292,6.6300337932839,-0.00392907356401295,1,13.9,29.9
3.13333333333333,11.7186748556407,30.2440173353546,6.62610554805005,-0.00392824523384583,1,13.9,29.9
3.16666666666667,11.7165363743819,30.464811705088,6.62217813070071,-0.00392741734934088,1,13.9,29.9
3.2,11.7143692624407,30.6854748892371,6.61825154078811,-0.00392658991260131,1,13.9,29.9
3.23333333333333,11.7121735700013,30.9060069118205,6.61432577787347,-0.0039257629146352,1,13.9,29.9
3.26666666666667,11.709949347935,31.1264077968627,6.61040084153372,-0.00392493633975111,1,13.9,29.9
3.3,11.7076966471568,31.3466775683885,6.60647673136314,-0.00392411017058247,1,13.9,29.9
3.33333333333333,11.7054155181069,31.5668162504179,6.60255344697072,-0.00392328439241929,1,13.8991319444444,29.9
3.36666666666667,11.7031060104468,31.7868238669633,6.59863098797474,-0.00392245899597832,1,13.8965277777778,29.9
3.4,11.7007681729927,32.0067004420286,6.59470935399642,-0.00392163397832324,1,13.8921875,29.9
3.43333333333333,11.6984020538459,32.2264459996101,6.59078854465432,-0.00392080934210171,1,13.8861111111111,29.9
3.46666666666667,11.696007700649,32.4460605636985,6.58686855956067,-0.00391998509364555,1,13.8782986111111,29.9
3.5,11.693585160878,32.665544158282,6.58294939832,-0.00391916124067127,1,13.86875,29.9
3.53333333333333,11.6911344820974,32.8848968073489,6.57903106052986,-0.00391833779014483,1,13.8574652777778,29.9
3.56666666666667,11.6886557121277,33.1041185348887,6.57511354578305,-0.00391751474680291,1,13.8444444444444,29.9
3.6,11.6861488991063,33.3232093648936,6.57119685367052,-0.00391669211253287,1,13.8296875,29.9
3.63333333333333,11.6836140914547,33.5421693213576,6.567280983784,-0.00391586988652204,1,13.8131944444444,29.9
3.66666666666667,11.6810513377783,33.7609984282762,6.56336593571798,-0.00391504806602327,1,13.7949652777778,29.9
3.7,11.6784606867406,33.9796967096445,6.5594517090706,-0.00391422664737284,1,13.775,29.9
3.73333333333333,11.6758421869454,34.1982641894563,6.5555383034436,-0.00391340562700293,1,13.7532986111111,29.9
3.76666666666667,11.6731958868529,34.4167008917031,6.55162571844141,-0.00391258500218949,1,13.7298611111111,29.9
3.8,11.6705218347419,34.6350068403736,6.54771395366997,-0.00391176477144484,1,13.7046875,29.9
3.83333333333333,11.6678200787161,34.8531820594538,6.54380300873543,-0.00391094493453181,1,13.6777777777778,29.9
3.86666666666667,11.6650906667433,35.0712265729271,6.53989288324327,-0.00391012549216629,1,13.6491319444444,29.9
3.9,11.6623336467103,35.2891404047753,6.53598357679767,-0.00390930644559528,1,13.61875,29.9
3.93333333333333,11.6595490664771,35.5069235789789,6.53207508900155,-0.00390848779612263,1,13.5866319444444,29.9
3.96666666666667,11.6567369739182,35.7245761195176,6.52816741945682,-0.00390766954472976,1,13.5527777777778,29.9
4,11.6538974169438,35.9420980503708,6.52426056776493,-0.00390685169188565,1,13.5171875,29.9
4.03333333333333,11.6510304435009,36.1594893955175,6.52035453352746,-0.00390603423747748,1,13.4798611111111,29.9
4.06666666666667,11.6481361015574,36.3767501789359,6.51644931634653,-0.00390521718092618,1,13.4407986111111,29.9
4.1,11.6452144390787,36.5938804246033,6.51254491582515,-0.00390440052137642,1,13.4,29.9
4.13333333333333,11.6422655040017,36.8108801564961,6.50864133156726,-0.00390358425789916,1,13.3574652777778,29.9
4.16666666666667,11.6392893442148,37.0277493985888,6.50473856317757,-0.00390276838968084,1,13.3131944444444,29.9
4.2,11.6362860075458,37.2444881748546,6.50083661026144,-0.0039019529161326,1,13.2671875,29.9
4.23333333333333,11.63325554176,37.4610965092648,6.49693547242452,-0.00390113783692492,1,13.2194444444444,29.9
4.26666666666667,11.6301979945656,37.6775744257892,6.49303514927256,-0.00390032315195654,1,13.1699652777778,29.9
4.3,11.6271134136244,37.893921948396,6.48913564041128,-0.00389950886127899,1,13.11875,29.9
4.33333333333333,11.6240018465631,38.110139101052,6.4852369454463,-0.00389869496498552,1,13.0657986111111,29.9
4.36666666666667,11.6208633409839,38.3262259077229,6.48133906398315,-0.00389788146314718,1,13.0111111111111,29.9
4.4,11.6176979444703,38.542182392373,6.47744199562742,-0.00389706835572845,1,12.9546875,29.9
4.43333333333333,11.6145057045896,38.7580085789657,6.47354573998483,-0.00389625564258633,1,12.8965277777778,29.9
4.46666666666667,11.6112866688908,38.9737044914629,6.46965029666138,-0.00389544332345704,1,12.8366319444444,29.9
4.5,11.6080408848999,39.1892701538257,6.46575566526337,-0.00389463139800839,1,12.775,29.9
4.53333333333333,11.6047684001154,39.4047055900134,6.4618618453975,-0.00389381986587267,1,12.7116319444444,29.9
