Time,x_ego,y_ego,velocity,acceleration,action,x_ped,y_ped
0,11.8,8.9,7,0,1,15.5,29.9
0.0333333333333333,11.7999967069701,9.1332703793903,6.9961557848882,-0.003844215111795,1,15.5,29.9
0.0666666666666667,11.799976102465,9.36640659865409,6.99196953026326,-0.00418625462494848,1,15.5,29.9
0.1,11.7999270346132,9.59940075386442,6.98769518926083,-0.00427434100243129,1,15.5,29.9
0.133333333333333,11.799843720538,9.83225377899641,6.98349807801611,-0.00419711124471522,1,15.5,29.9
0.166666666666667,11.7997241435068,10.0649678613223,6.97935653271929,-0.00414154529682076,1,15.5,29.9
0.2,11.7995686166783,10.297544574234,6.97525501348861,-0.00410151923067925,1,15.5,29.9
0.233333333333333,11.7993786828593,10.5299850517457,6.97118238778619,-0.00407262570241507,1,15.5,29.9
0.266666666666667,11.7991571857114,10.7622901139695,6.96713064977593,-0.00405173801026049,1,15.5,29.9
0.3,11.7989096669496,10.9944603580026,6.96309408653775,-0.00403656323818691,1,15.5,29.9
0.333333333333333,11.7986408851591,11.2264962211851,6.95906865805203,-0.00402542848571574,1,15.5,29.9
0.366666666666667,11.798354145568,11.4583980259647,6.95505147226616,-0.00401718578586951,1,15.5,29.9
0.4,11.7980516712206,11.6901660121101,6.95104045223623,-0.00401102002993348,1,15.5,29.9
0.433333333333333,11.7977349320828,11.9218003598343,6.94703410388205,-0.0040063483541779,1,15.5,29.9
0.466666666666667,11.797404874578,12.1533012064304,6.94303135221777,-0.00400275166428354,1,15.5,29.9
0.5,11.7970620493206,12.384668658231,6.93903142448594,-0.00399992773182323,1,15.5,29.9
0.533333333333333,11.7967066677866,12.6159027991962,6.93503376599089,-0.00399765849505318,1,15.5,29.9
0.566666666666667,11.7963386295255,12.8470036970827,6.93103797913209,-0.00399578685880542,1,15.5,29.9
0.6,11.7959575553973,13.0779714078948,6.9270437791293,-0.0039942000027855,1,15.5,29.9
0.633333333333333,11.795562846722,13.3088059791243,6.92305096189768,-0.00399281723161771,1,15.5,29.9
0.666666666666667,11.7951537726031,13.5395074521367,6.91905938084476,-0.0039915810529223,1,15.5,29.9
0.7,11.7947295737514,13.7700758639501,6.91506893023661,-0.00399045060814629,1,15.5,29.9
0.733333333333333,11.7942895639722,14.0005112485681,6.91107953337936,-0.00398939685725797,1,15.5,29.9
0.766666666666667,11.793833210522,14.2308136379716,6.90709113430076,-0.00398839907859827,1,15.5,29.9
0.8,11.7933601802182,14.4609830628369,6.90310369195263,-0.00398744234812831,1,15.5,29.9
0.833333333333333,11.7928703467814,14.6910195530299,6.89911717620406,-0.00398651574856768,1,15.5,29.9
0.866666666666667,11.7923637635712,14.9209231379167,6.89513156507142,-0.00398561113263707,1,15.5,29.9
0.9,11.7918406123831,15.1506938465347,6.89114684275938,-0.0039847223120395,1,15.5,29.9
0.933333333333333,11.791301142086,15.3803317076653,6.88716299819827,-0.00398384456111245,1,15.5,29.9
0.966666666666667,11.7907456104536,15.6098367498496,6.88318002387211,-0.00398297432616523,1,15.5,29.9
1,11.7901742393249,15.8392090013824,6.87919791483211,-0.00398210903999985,1,15.5,29.9
1.03333333333333,11.789587188484,16.068448490308,6.87521666786554,-0.00398124696657032,1,15.5,29.9
1.06666666666667,11.788984548723,16.2975552444332,6.8712362808279,-0.00398038703763515,1,15.5,29.9
1.1,11.7883663505779,16.5265292913605,6.86725675215061,-0.00397952867728968,1,15.5,29.9
1.13333333333333,11.7877325828587,16.7553706585372,6.86327808052064,-0.0039786716299739,1,15.5,29.9
1.16666666666667,11.7870832145136,16.9840793733115,6.8593002647089,-0.00397781581173451,1,15.5,29.9
1.2,11.7864182142885,17.2126554629851,6.85532330351072,-0.00397696119818747,1,15.5,29.9
1.23333333333333,11.7857375645339,17.4410989548543,6.85134719575723,-0.00397610775348767,1,15.5,29.9
1.26666666666667,11.7850412677255,17.669409876234,6.84737194036003,-0.00397525539719989,1,15.5,29.9
1.3,11.7843293462484,17.8975882544653,6.84339753635871,-0.00397440400131543,1,15.5,29.9
1.33333333333333,11.7836018373589,18.1256341169089,6.83942398295139,-0.00397355340732375,1,15.5,29.9
1.36666666666667,11.7828587858287,18.3535474909305,6.83545127949874,-0.00397270345264467,1,15.5,29.9
1.4,11.7821002366594,18.5813284038835,6.83147942550209,-0.00397185399665112,1,15.5,29.9
1.43333333333333,11.7813262296159,18.8089768830949,6.82750842056306,-0.00397100493903135,1,15.5,29.9
1.46666666666667,11.7805367964525,19.0364929558577,6.82353826433613,-0.00397015622693608,1,15.5,29.9
1.5,11.7797319608422,19.2638766494292,6.81956895648505,-0.00396930785107408,1,15.5,29.9
1.53333333333333,11.778911740372,19.4911279910368,6.81560049665132,-0.00396845983372884,1,15.5,29.9
1.56666666666667,11.778076149625,19.7182470078865,6.81163288443815,-0.0039676122131711,1,15.5,29.9
1.6,11.7772252033445,19.9452337271729,6.80766611940946,-0.00396676502868765,1,15.5,29.9
1.63333333333333,11.7763589188914,20.1720881760873,6.80370020110006,-0.00396591830940718,1,15.5,29.9
1.66666666666667,11.7754773175593,20.3988103818228,6.79973512903155,-0.00396507206850494,1,15.5,29.9
1.7,11.7745804246844,20.6254003715752,6.79577090272883,-0.00396422630272042,1,15.5,29.9
1.73333333333333,11.7736682687856,20.8518581725412,6.79180752173276,-0.00396338099607618,1,15.5,29.9
1.76666666666667,11.7727408801505,21.0781838119136,6.78784498560688,-0.00396253612587927,1,15.5,29.9
1.8,11.7717982893155,21.3043773168762,6.78388329393775,-0.00396169166912674,1,15.5,29.9
1.83333333333333,11.7708405258159,21.5304387145993,6.77992244633011,-0.00396084760763671,1,15.5,29.9
1.86666666666667,11.7698676174337,21.756368032237,6.77596244239907,-0.00396000393104323,1,15.5,29.9
1.9,11.7688795900055,21.9821652969254,6.77200328176173,-0.0039591606373417,1,15.5,29.9
1.93333333333333,11.7678764677081,22.2078305357842,6.76804496403028,-0.00395831773144462,1,15.5,29.9
1.96666666666667,11.7668582736496,22.4333637759183,6.76408748880783,-0.00395747522245582,1,15.5,29.9
2,11.765825030562,22.6587650444202,6.76013085568718,-0.00395663312064443,1,15.5,29.9
2.03333333333333,11.7647767614145,22.884034368373,6.7561750642524,-0.0039557914347812,1,15.5,29.9
2.06666666666667,11.7637134898253,23.1091717748519,6.75222011408196,-0.00395495017044034,1,15.5,29.9
2.1,11.7626352402258,23.3341772909249,6.74826600475256,-0.0039541093293991,1,15.5,29.9
2.13333333333333,11.7615420377963,23.559050943653,6.74431273584255,-0.00395326891001346,1,15.5,29.9
2.16666666666667,11.760433908242,23.7837927600889,6.74036030693424,-0.00395242890830616,1,15.5,29.9
2.2,11.7593108774975,24.0084027672764,6.73640871761491,-0.00395158931932915,1,15.5,29.9
2.23333333333333,11.7581729714446,24.2328809922485,6.73245796747648,-0.00395075013843194,1,15.5,29.9
2.26666666666667,11.7570202157057,24.4572274620271,6.72850805611429,-0.0039499113621897,1,15.5,29.9
2.3,11.7558526355425,24.6814422036221,6.72455898312545,-0.00394907298883851,1,15.5,29.9
2.33333333333333,11.7546702558583,24.9055252440314,6.72061074810721,-0.0039482350182416,1,15.5,29.9
2.36666666666667,11.7534731012805,25.1294766102412,6.71666335065573,-0.00394739745148431,1,15.5,29.9
2.4,11.7522611962835,25.3532963292268,6.71271679036543,-0.00394656029029594,1,15.5,29.9
2.43333333333333,11.7510345653161,25.5769844279529,6.70877106682897,-0.00394572353646616,1,15.5,29.9
2.46666666666667,11.7497932329004,25.8005409333742,6.70482617963762,-0.00394488719135033,1,15.5,29.9
2.5,11.7485380353229,26.0239658766488,6.70088209740781,-0.00394408222981024,1,15.5,29.9
2.53333333333333,11.7472724709011,26.2472593031247,6.69693881172577,-0.00394328568203051,1,15.5,29.9
2.56666666666667,11.7460001316865,26.4704212594971,6.69299632508445,-0.00394248664132224,1,15.5,29.9
2.6,11.7447258121889,26.6934517996784,6.68905465418775,-0.00394167089670283,1,15.5,29.9
2.63333333333333,11.743452714208,26.9163509697591,6.68511383257557,-0.00394082161217746,1,15.5,29.9
2.66666666666667,11.7421821774679,27.1391188059414,6.6811738721808,-0.00393996039476807,1,15.5,29.9
2.7,11.7409143061986,27.3617553375163,6.67723477178781,-0.00393910039299872,1,15.5,29.9
2.73333333333333,11.7396484847369,27.5842605895328,6.67329652503105,-0.00393824675675614,1,15.5,29.9
2.76666666666667,11.7383837477607,27.8066345848344,6.66935912513191,-0.0039373998991401,1,15.5,29.9
2.8,11.7371190131397,28.0288773453995,6.665422566726,-0.0039365584059059,1,15.5,29.9
2.83333333333333,11.7358532092439,28.2509888931043,6.66148684607235,-0.00393572065365255,1,15.5,29.9
2.86666666666667,11.734585335691,28.4729692501035,6.65755196068438,-0.00393488538797016,1,15.5,29.9
2.9,11.7333144915586,28.6948184390151,6.65361790890097,-0.00393405178341055,1,15.5,29.9
2.93333333333333,11.7320398937102,28.9165364830428,6.64968468955313,-0.00393321934783764,1,15.5,29.9
2.96666666666667,11.7307608953009,29.1381234060951,6.64575230173117,-0.00393238782196192,1,15.5,29.9
3,11.7294770045093,29.3595792329059,6.64182074462863,-0.00393155710253623,1,15.5,29.9
3.03333333333333,11.7281878979644,29.5809039891258,6.63789001744951,-0.00393072717912268,1,15.5,29.9
3.06666666666667,11.7268934223471,29.8020977013476,6.63396011937423,-0.00392989807528377,1,15.5,29.9
3.1,11.7255935801092,30.0231603970392,6.63003104957825,-0.00392906979597818,1,15.5,29.9
3.13333333333333,11.724288499412,30.2440921043842,6.62610280728714,-0.00392824229110733,1,15.5,29.9
3.16666666666667,11.7229783924884,30.4648928520512,6.6221753918418,-0.00392741544533948,1,15.5,29.9
3.2,11.7216635093692,30.6855626689309,6.61824880274526,-0.00392658909653942,1,15.5,29.9
3.23333333333333,11.7203440946648,30.9061015838863,6.61432303967147,-0.00392576307378967,1,15.5,29.9
3.26666666666667,11.7190203539084,31.1265096255551,6.61039810243315,-0.0039249372383221,1,15.5,29.9
3.3,11.717692433414,31.3467868222269,6.60647399092159,-0.00392411151156669,1,15.5,29.9
3.33333333333333,11.7163604145067,31.5669332018049,6.60255070503912,-0.00392328588246471,1,15.5,29.9
3.36666666666667,11.7150243201417,31.786948791839,6.598628244643,-0.00392246039612054,1,15.5,29.9
3.4,11.7136841299689,32.0068336196106,6.59470660951112,-0.00392163513187693,1,15.5,29.9
3.43333333333333,11.712339799088,32.2265877122406,6.59078579933131,-0.0039208101798156,1,15.5,29.9
3.46666666666667,11.7109912760586,32.4462110967945,6.58686581370968,-0.00391998562162232,1,15.5,29.9
3.5,11.7096385168883,32.665703800366,6.58294665219148,-0.00391916151820304,1,15.5,29.9
3.53333333333333,11.7082814933058,32.885065850127,6.57902831428744,-0.00391833790403862,1,15.5,29.9
3.56666666666667,11.7069201952048,33.1042972733435,6.5751107995001,-0.00391751478734204,1,15.5,29.9
3.6,11.7055546283828,33.3233980973634,6.57119410734525,-0.00391669215485368,1,15.5,29.9
3.63333333333333,11.7041848094032,33.5423683495863,6.5672782373656,-0.00391586997965199,1,15.5,29.9
3.66666666666667,11.7028107595495,33.7612080574277,6.56336318913548,-0.00391504823011513,1,15.5,29.9
3.7,11.7014324995161,33.9799172482868,6.55944896225759,-0.00391422687788978,1,15.5,29.9
3.73333333333333,11.700050045877,34.1984959495255,6.55553555635429,-0.00391340590329836,1,15.5,29.9
3.76666666666667,11.6986634096827,34.4169441884587,6.55162297105686,-0.00391258529743421,1,15.5,29.9
3.8,11.6972725969464,34.6352619923579,6.54771120599562,-0.00391176506124147,1,15.5,29.9
3.83333333333333,11.6958776103904,34.853449388461,6.54380026079309,-0.00391094520252633,1,15.5,29.9
3.86666666666667,11.6944784516815,35.0715064039865,6.53989013506094,-0.00391012573214766,1,15.5,29.9
3.9,11.6930751234572,35.2894330661461,6.53598082840044,-0.00390930666049893,1,15.5,29.9
3.93333333333333,11.691667630669,35.5072294021528,6.53207234040544,-0.00390848799500265,1,15.5,29.9
3.96666666666667,11.6902559810499,35.7248954392242,6.52816467066651,-0.00390766973892642,1,15.5,29.9
4,11.6888401847771,35.9424312045808,6.524257818775,-0.00390685189151263,1,15.5,29.9
4.03333333333333,11.6874202535826,36.1598367254397,6.52035178432598,-0.00390603444902204,1,15.5,29.9
4.06666666666667,11.6859961996462,36.3771120290085,6.5164465669197,-0.00390521740628369,1,15.5,29.9
4.1,11.6845680345851,36.5942571424785,6.51254216616145,-0.00390440075824205,1,15.5,29.9
4.13333333333333,11.6831357687642,36.8112720930199,6.50863858166033,-0.00390358450112505,1,15.5,29.9
4.16666666666667,11.6816994110272,37.0281569077809,6.50473581302727,-0.00390276863305594,1,15.5,29.9
4.2,11.6802589688262,37.2449116138873,6.50083385987322,-0.00390195315405251,1,15.5,29.9
4.23333333333333,11.6788144486386,37.4615362384463,6.49693272180764,-0.00390113806557668,1,15.5,29.9
4.26666666666667,11.6773658565158,37.6780308085489,6.4930323984378,-0.00390032336984536,1,15.5,29.9
4.3,11.6759131986096,37.8943953512744,6.48913288936871,-0.00389950906908965,1,15.5,29.9
4.33333333333333,11.6744564815622,38.1106298936921,6.48523419420372,-0.00389869516498553,1,15.5,29.9
4.36666666666667,11.6729957126981,38.326734462863,6.48133631254539,-0.00389788165833682,1,15.5,29.9
4.4,11.6715309000196,38.5427090858398,6.47743924399638,-0.00389706854900673,1,15.5,29.9
4.43333333333333,11.6700620520485,38.7585537896658,6.47354298816026,-0.00389625583612041,1,15.5,29.9
4.46666666666667,11.6685891775857,38.9742686013735,6.4696475446419,-0.00389544351836069,1,15.5,29.9
4.5,11.6671122854604,39.1898535479828,6.46575291304759,-0.00389463159431358,1,15.5,29.9
4.53333333333333,11.6656313843309,39.4053086564997,6.46185909298481,-0.00389382006277739,1,15.5,29.9
