Time,x_ego,y_ego,velocity,acceleration,action,x_ped,y_ped
0,11.8,8.9,7,0,1,15.5,29.9
0.0333333333333333,11.8,9.13327037939431,6.99615577953002,-0.00384422046998356,1,15.5,29.9
0.0666666666666667,11.8,9.36640659881126,6.99196947109348,-0.00418630843653833,1,15.5,29.9
0.1,11.8,9.59940075527911,6.98769498718995,-0.00427448390352669,1,15.5,29.9
0.133333333333333,11.8,9.83225378528415,6.9834976545359,-0.00419733265404787,1,15.5,29.9
0.166666666666667,11.8,10.0649678802301,6.97935585456763,-0.00414179996826913,1,15.5,29.9
0.2,11.8,10.2975446186632,6.97525409491249,-0.00410175965514537,1,15.5,29.9
0.233333333333333,11.8,10.5299851399444,6.97118127319767,-0.00407282171482137,1,15.5,29.9
0.266666666666667,11.8,10.7622902687052,6.96712943294736,-0.00405184025031069,1,15.5,29.9
0.3,11.8,10.9944606040335,6.96309287213007,-0.00403656081728965,1,15.5,29.9
0.333333333333333,11.8,11.2264965833863,6.95906750439986,-0.00402536773020401,1,15.5,29.9
0.366666666666667,11.8,11.4583985283897,6.95505040137947,-0.00401710302039238,1,15.5,29.9
0.4,11.8,11.6901666776599,6.95103946463339,-0.00401093674607722,1,15.5,29.9
0.433333333333333,11.8,11.9218012103233,6.94703319054231,-0.00400627409108711,1,15.5,29.9
0.466666666666667,11.8,12.1533022628712,6.94303050173604,-0.00400268880626342,1,15.5,29.9
0.5,11.8,12.3846699412377,6.93903062623031,-0.00399987550573222,1,15.5,29.9
0.533333333333333,11.8,12.6159043294559,6.93503301077307,-0.00399761545723631,1,15.5,29.9
0.566666666666667,11.7999983674989,12.8470054958588,6.93103726007001,-0.00399575070306124,1,15.5,29.9
0.6,11.7999873081087,13.077973497485,6.9270431052791,-0.00399415479091303,1,15.5,29.9
0.633333333333333,11.799956074903,13.3088083829596,6.92305039190763,-0.00399271337147056,1,15.5,29.9
0.666666666666667,11.7998911895944,13.5395101938331,6.91905905355958,-0.00399133834805276,1,15.5,29.9
0.7,11.7997796004003,13.7700789645988,6.91506907942353,-0.0039899741360454,1,15.5,29.9
0.733333333333333,11.7996084136689,14.0005147217916,6.91108042870626,-0.00398865071726817,1,15.5,29.9
0.766666666666667,11.7993696957738,14.2308174840969,6.90709299310263,-0.00398743560363712,1,15.5,29.9
0.8,11.7990581058433,14.460987263096,6.90310663440773,-0.0039863586948945,1,15.5,29.9
0.833333333333333,11.7986731054696,14.6910240666361,6.89912108257653,-0.00398555183120397,1,15.5,29.9
0.866666666666667,11.798219952162,14.9209279046652,6.89513615021981,-0.00398493235671715,1,15.5,29.9
0.9,11.7977056421128,15.1506987919978,6.89115174755426,-0.00398440266555156,1,15.5,29.9
0.933333333333333,11.7971391089239,15.380336751595,6.88716789172821,-0.00398385582604632,1,15.5,29.9
0.966666666666667,11.7965277784076,15.6098418118124,6.88318471892665,-0.00398317280156224,1,15.5,29.9
1,11.7958769842669,15.8392140035405,6.87920233369931,-0.00398238522734484,1,15.5,29.9
1.03333333333333,11.7951904354278,16.0684533583775,6.87522079928044,-0.00398153441886429,1,15.5,29.9
1.06666666666667,11.7944706283491,16.2975599073907,6.8712401458503,-0.00398065343014498,1,15.5,29.9
1.1,11.7937191385634,16.5265336803593,6.86726038336602,-0.00397976248427678,1,15.5,29.9
1.13333333333333,11.7929367969051,16.7553747053291,6.86328151236781,-0.00397887099820959,1,15.5,29.9
1.16666666666667,11.7921237942791,16.9840830083708,6.85930353076967,-0.00397798159813956,1,15.5,29.9
1.2,11.7912797670914,17.2126586135164,6.85532643692092,-0.00397709384875089,1,15.5,29.9
1.23333333333333,11.7904039024338,17.441101542882,6.85135023007197,-0.00397620684894662,1,15.5,29.9
1.26666666666667,11.7894950789776,17.6694118169845,6.84737490950006,-0.00397532057190997,1,15.5,29.9
1.3,11.7885520364965,17.8975894552261,6.84340047331518,-0.00397443618488325,1,15.5,29.9
1.33333333333333,11.7875735510949,18.1256344764861,6.83942691759362,-0.003973555721557,1,15.5,29.9
1.36666666666667,11.786558587684,18.3535468997266,6.83545423613515,-0.0039726814584693,1,15.5,29.9
1.4,11.7855064054809,18.5813267445145,6.83148242088399,-0.00397181525116608,1,15.5,29.9
1.43333333333333,11.7844166032223,18.8089740313749,6.82751146288367,-0.00397095800031888,1,15.5,29.9
1.46666666666667,11.7832891041859,19.0364887819306,6.82354135351743,-0.00397010936623587,1,15.5,29.9
1.5,11.7821240930362,19.263871018828,6.81957208571611,-0.00396926780132034,1,15.5,29.9
1.53333333333333,11.7809219241796,19.4911207654951,6.81560365482454,-0.00396843089157173,1,15.5,29.9
1.56666666666667,11.7796830235568,19.7182380458057,6.81163605892113,-0.00396759590341489,1,15.5,29.9
1.6,11.7784078030269,19.9452228837326,6.80766929855505,-0.00396676036608046,1,15.5,29.9
1.63333333333333,11.7770966002185,20.172075303061,6.80370337603431,-0.00396592252073358,1,15.5,29.9
1.66666666666667,11.7757496489893,20.3987953272067,6.79973829450199,-0.00396508153232045,1,15.5,29.9
1.7,11.7743670784257,20.6253829791558,6.7957740570497,-0.0039642374522888,1,15.5,29.9
1.73333333333333,11.7729489330829,20.85183828151,6.79181066605411,-0.00396339099559295,1,15.5,29.9
1.76666666666667,11.7714952046243,21.0781612566049,6.78784812282456,-0.0039625432295507,1,15.5,29.9
1.8,11.7700058651335,21.304351926658,6.7838864275576,-0.00396169526695722,1,15.5,29.9
1.83333333333333,11.7684808945147,21.5304103139063,6.77992557952976,-0.00396084802784546,1,15.5,29.9
1.86666666666667,11.7669202976461,21.7563364407042,6.77596557742854,-0.00396000210121628,1,15.5,29.9
1.9,11.7653241103355,21.9821303295685,6.77200641971875,-0.00395915770978927,1,15.5,29.9
1.93333333333333,11.7636923958703,22.207792003171,6.76804810495862,-0.00395831476013253,1,15.5,29.9
1.96666666666667,11.7620252356079,22.4333214842941,6.76409063201063,-0.00395747294798721,1,15.5,29.9
2,11.760322717514,22.6587187957676,6.76013400012711,-0.0039566318835238,1,15.5,29.9
2.03333333333333,11.7585849260046,22.8839839604077,6.75617820892269,-0.00395579120441347,1,15.5,29.9
2.06666666666667,11.7568119352727,23.1091170009723,6.75222325826871,-0.00395495065398066,1,15.5,29.9
2.1,11.7550038068847,23.3341179401419,6.7482691481538,-0.00395411011491298,1,15.5,29.9
2.13333333333333,11.7531605912064,23.5589868005244,6.74431587855226,-0.00395326960153941,1,15.5,29.9
2.16666666666667,11.7512823313978,23.7837236046792,6.74036344932942,-0.00395242922283856,1,15.5,29.9
2.2,11.7493690683929,24.0083283751508,6.73641186019726,-0.00395158913215887,1,15.5,29.9
2.23333333333333,11.7474208454138,24.2328011345006,6.7324611107185,-0.00395074947875873,1,15.5,29.9
2.26666666666667,11.7454377110168,24.4571419053316,6.72851120034642,-0.00394991037208481,1,15.5,29.9
2.3,11.7434197202476,24.6813507102993,6.72456212848234,-0.00394907186407512,1,15.5,29.9
2.33333333333333,11.7413669340337,24.9054275721093,6.72061389453298,-0.0039482339493615,1,15.5,29.9
2.36666666666667,11.7392794173302,25.1293725135048,6.71666649795385,-0.0039473965791359,1,15.5,29.9
2.4,11.7371572367209,25.3531855572488,6.71271993827159,-0.00394655968226143,1,15.5,29.9
2.43333333333333,11.7350004581468,25.5768667261056,6.7087742150846,-0.00394572318698927,1,15.5,29.9
2.46666666666667,11.7328091452591,25.800416042826,6.70482932804662,-0.00394488703797435,1,15.5,29.9
2.5,11.730583358639,26.0238335301401,6.70088527684097,-0.00394405120565455,1,15.5,29.9
2.53333333333333,11.7283231558718,26.2471192107563,6.69694206115349,-0.0039432156874728,1,15.5,29.9
2.56666666666667,11.726028592269,26.4702731073663,6.69299968065097,-0.00394238050252138,1,15.5,29.9
2.6,11.7236997219298,26.6932952426545,6.68905813496866,-0.0039415456823102,1,15.5,29.9
2.63333333333333,11.721336598823,26.9161856393069,6.68511742370793,-0.00394071126073214,1,15.5,29.9
2.66666666666667,11.7189392776395,27.1389443200196,6.68117754644223,-0.0039398772657,1,15.5,29.9
2.7,11.7165078142728,27.3615713075034,6.67723850272818,-0.00393904371405274,1,15.5,29.9
2.73333333333333,11.7140422659044,27.5840666244854,6.67330029211804,-0.00393821061013711,1,15.5,29.9
2.76666666666667,11.7115426907661,27.8064302937073,6.66936291417043,-0.00393737794760707,1,15.5,29.9
2.8,11.7090091477079,28.028662337921,6.66542636845717,-0.00393654571326074,1,15.5,29.9
2.83333333333333,11.7064416957178,28.2507627798845,6.66149065456558,-0.00393571389158875,1,15.5,29.9
2.86666666666667,11.7038403935133,28.4727316423572,6.65755577209677,-0.00393488246881724,1,15.5,29.9
2.9,11.701205299285,28.6945689480974,6.65362172066113,-0.00393405143563985,1,15.5,29.9
2.93333333333333,11.6985364706137,28.9162747198613,6.64968849987286,-0.00393322078826852,1,15.5,29.9
2.96666666666667,11.6958339645419,29.1378489804031,6.64575610934486,-0.00393239052799643,1,15.5,29.9
3,11.6930978377457,29.3592917524769,6.64182454868521,-0.00393156065965083,1,15.5,29.9
3.03333333333333,11.6903281467448,29.580603058839,6.63789381749559,-0.00393073118961951,1,15.5,29.9
3.06666666666667,11.6875249480919,29.8017829222499,6.63396391537166,-0.00392990212393229,1,15.5,29.9
3.1,11.6846882985026,30.0228313654757,6.63003484190476,-0.00392907346690041,1,15.5,29.9
3.13333333333333,11.6818182549091,30.243748411289,6.62610659668432,-0.0039282452204441,1,15.5,29.9
3.16666666666667,11.6789148744413,30.4645340824687,6.62217917930018,-0.00392741738413616,1,15.5,29.9
3.2,11.6759782143589,30.6851884017991,6.61825258934439,-0.00392658995578987,1,15.5,29.9
3.23333333333333,11.6730083319582,30.9057113920691,6.61432682641207,-0.00392576293231972,1,15.5,29.9
3.26666666666667,11.6700052844844,31.1261030760708,6.61040189010146,-0.00392493631061086,1,15.5,29.9
3.3,11.6669691290663,31.346363476599,6.60647778001326,-0.00392411008820304,1,15.5,29.9
3.33333333333333,11.6638999226845,31.5664926164505,6.60255449574959,-0.00392328426366539,1,15.5,29.9
3.36666666666667,11.6607977221736,31.7864905184244,6.59863203691295,-0.00392245883664177,1,15.5,29.9
3.4,11.6576625842484,32.0063572053217,6.59471040310531,-0.0039216338076411,1,15.5,29.9
3.43333333333333,11.6544945655447,32.2260926999467,6.59078959392764,-0.00392080917767235,1,15.5,29.9
3.46666666666667,11.6512937226602,32.4456970251068,6.5868696089798,-0.00391998494783241,1,15.5,29.9
3.5,11.6480601121872,32.6651702036132,6.58295044786082,-0.00391916111898727,1,15.5,29.9
3.53333333333333,11.6447937907298,32.884512258281,6.57903211016925,-0.00391833769156769,1,15.5,29.9
3.56666666666667,11.6414948149075,33.1037232119295,6.57511459550374,-0.00391751466550527,1,15.5,29.9
3.6,11.6381632413444,33.3228030873818,6.57119790346342,-0.0039166920403213,1,15.5,29.9
3.63333333333333,11.6347991266525,33.5417519074649,6.56728203364816,-0.0039158698152626,1,15.5,29.9
3.66666666666667,11.6314025274127,33.7605696950088,6.56336698565866,-0.00391504798949782,1,15.5,29.9
3.7,11.627973500159,33.979256472847,6.55945275909639,-0.00391422656227292,1,15.5,29.9
3.73333333333333,11.6245121013688,34.1978122638159,6.55553935356338,-0.00391340553301145,1,15.5,29.9
3.76666666666667,11.6210191823723,34.416237102662,6.55162669670363,-0.0039126568597494,1,15.5,29.9
3.8,11.6174982106926,34.6345310641923,6.54771476516148,-0.00391193154214253,1,15.5,29.9
3.83333333333333,11.6139520062358,34.8526942153231,6.54380361978067,-0.00391114538081538,1,15.5,29.9
3.86666666666667,11.6103828457599,35.0707266161249,6.53989323855174,-0.00391038122892873,1,15.5,29.9
3.9,11.6067960913458,35.2886283757912,6.53598350830452,-0.00390973024722285,1,15.5,29.9
3.93333333333333,11.6032017682246,35.5063996792027,6.53207442539231,-0.00390908291220615,1,15.5,29.9
3.96666666666667,11.5996104374379,35.7240407238382,6.52816610279474,-0.00390832259756912,1,15.5,29.9
4,11.5960317546497,35.9415516958688,6.52425864267893,-0.00390746011580756,1,15.5,29.9
4.03333333333333,11.5924745454727,36.1589327694706,6.5203521227595,-0.00390651991943525,1,15.5,29.9
4.06666666666667,11.5889459053738,36.3761840907557,6.51644660699299,-0.0039055157665091,1,15.5,29.9
4.1,11.5854494132499,36.5933057477913,6.51254208853901,-0.00390451845398498,1,15.5,29.9
4.13333333333333,11.5819876415445,36.8102978101191,6.50863853026065,-0.00390355827835442,1,15.5,29.9
4.16666666666667,11.5785605012018,37.0271603025824,6.5047358753124,-0.00390265494825126,1,15.5,29.9
4.2,11.5751656791398,37.2438932131431,6.50083406205386,-0.00390181325854133,1,15.5,29.9
4.23333333333333,11.5717996736304,37.4604965104547,6.4969330468951,-0.00390101515875951,1,15.5,29.9
4.26666666666667,11.5684585367862,37.6769701564956,6.49303280863319,-0.003900238261906,1,15.5,29.9
4.3,11.5651383683738,37.8933141148181,6.48913334326002,-0.00389946537316899,1,15.5,29.9
4.33333333333333,11.5618356223866,38.1095283554566,6.48523465651941,-0.00389868674061677,1,15.5,29.9
4.36666666666667,11.5585472840027,38.3256128575557,6.48133675790801,-0.00389789861139711,1,15.5,29.9
4.4,11.55527095997,38.5415676105366,6.47743965704046,-0.00389710086755013,1,15.5,29.9
4.43333333333333,11.5520049088145,38.757392614316,6.47354336194561,-0.00389629509484912,1,15.5,29.9
4.46666666666667,11.548748024298,38.9730878788378,6.46964787854347,-0.00389548340213786,1,15.5,29.9
4.5,11.5454997787158,39.188653423038,6.46575321070902,-0.00389466783445247,1,15.5,29.9
4.53333333333333,11.5422601316124,39.4040892733284,6.46185936057601,-0.00389385013300991,1,15.5,29.9
