Time,x_ego,y_ego,velocity,acceleration,action,x_ped,y_ped
0,11.8,15.9,5,0,1,15.5,29.9
0.0333333333333333,11.8,16.0666076888419,4.99642261439338,-0.0035773856066168,1,15.3694444444444,29.9
0.0666666666666667,11.8,16.2330926531145,4.99264756783477,-0.00377504655861216,1,15.2444444444444,29.9
0.1,11.8,16.399449296924,4.98873130122091,-0.00391626661385835,1,15.125,29.9
0.133333333333333,11.8,16.5656736245138,4.98471426828108,-0.00401703293983147,1,15.0111111111111,29.9
0.166666666666667,11.8,16.7317627870126,4.98062546389497,-0.00408880438611448,1,14.9027777777778,29.9
0.2,11.8,16.8977147575669,4.97648566969706,-0.00413979419790333,1,14.8,29.9
0.233333333333333,11.8,17.063528098494,4.97230978036584,-0.00417588933122204,1,14.7027777777778,29.9
0.266666666666667,11.8,17.2292017943893,4.96810847105553,-0.00420130931030815,1,14.6111111111111,29.9
0.3,11.8,17.3947351325064,4.96388939262275,-0.00421907843277847,1,14.525,29.9
0.333333333333333,11.8,17.5601276170202,4.95965802839236,-0.00423136423039949,1,14.4444444444444,29.9
0.366666666666667,11.8,17.7253789075748,4.95541830829244,-0.00423972009991047,1,14.3694444444444,29.9
0.4,11.8,17.8904887752388,4.95117304903021,-0.00424525926223307,1,14.3,29.9
0.433333333333333,11.8,18.0554570709351,4.94692426953351,-0.00424877949670321,1,14.2361111111111,29.9
0.466666666666667,11.7999993882199,18.2202837028142,4.94267341723339,-0.00425085230012101,1,14.1777777777778,29.9
0.5,11.799995460937,18.3849686200307,4.93842153191134,-0.00425188532204768,1,14.125,29.9
0.533333333333333,11.7999858770638,18.5495118010928,4.93416936018554,-0.00425217172579817,1,14.0777777777778,29.9
0.566666666666667,11.799969284102,18.7139132454945,4.9299174353175,-0.00425192486804526,1,14.0361111111111,29.9
0.6,11.7999451508557,18.878172604411,4.92564433763817,-0.0042730976793246,1,14,29.9
0.633333333333333,11.7999135606666,19.0422608374162,4.9196500277757,-0.0059943098624764,1,13.9694444444444,29.9
0.666666666666667,11.7998750069374,19.2061492804467,4.9136570775473,-0.00599295022839996,1,13.9444444444444,29.9
0.7,11.7998302199288,19.3698089172611,4.90592182048019,-0.00773525706710387,1,13.925,29.9
0.733333333333333,11.7997800409968,19.5331242733952,4.89300047946394,-0.0129213410162565,1,13.9111111111111,29.9
0.766666666666667,11.7997253317109,19.69592249598,4.87489409139318,-0.0181063880707582,3,13.9027777777778,29.9
0.8,11.7996669142071,19.8580020687468,4.84988183317567,-0.0250122582175036,3,13.9,29.9
0.833333333333333,11.7996055250197,20.019190229075,4.82140966361356,-0.0284721695621171,3,13.9,29.9
0.866666666666667,11.7995417837943,20.1793716704312,4.78947902010292,-0.0319306435106315,3,13.9,29.9
0.9,11.7994761830707,20.3384314962732,4.75411309315051,-0.0353659269524167,3,13.9,29.9
0.933333333333333,11.7994090787907,20.4962548552479,4.71529143403491,-0.0388216591155972,3,13.9,29.9
0.966666666666667,11.7993406829632,20.6527552792264,4.67473747338009,-0.0405539606548171,3,13.9,29.9
1,11.7992710794491,20.8078467015886,4.63075191952021,-0.0439855538598808,3,13.9,29.9
1.03333333333333,11.7992002683376,20.9613566221706,4.57984809831043,-0.0509038212097845,3,13.9,29.9
1.06666666666667,11.7991281858819,21.1130835242496,4.52377161011569,-0.0560764881947415,3,13.9,29.9
1.1,11.7990547281931,21.2628550121814,4.46252409034995,-0.0612475197657343,3,13.9,29.9
1.13333333333333,11.7989797984251,21.4104987461535,4.39610721702915,-0.0664168733208008,3,13.9,29.9
1.16666666666667,11.7989033416871,21.5558424433301,4.32452269541704,-0.0715845216121123,3,13.9,29.9
1.2,11.7988253397987,21.6988003493267,4.25296039213891,-0.0715623032781254,3,13.9,29.9
1.23333333333333,11.7987458201295,21.8393732239014,4.1814212670471,-0.0715391250918138,3,13.9,29.9
1.26666666666667,11.798664882425,21.9775618544762,4.10990598094333,-0.0715152861037751,3,13.9,29.9
1.3,11.7985826865247,22.1133670475086,4.03841498945355,-0.071490991489771,3,13.9,29.9
1.33333333333333,11.7984994329828,22.2467896223049,3.966948610398,-0.0714663790555585,3,13.9,29.9
1.36666666666667,11.7984153408268,22.3778304065817,3.89550706963701,-0.0714415407609899,3,13.9,29.9
1.4,11.7983306266493,22.5064902332836,3.8240905294626,-0.0714165401744049,3,13.9,29.9
1.43333333333333,11.7982455154677,22.6327121698354,3.74923305734911,-0.074857472113492,3,13.9,29.9
1.46666666666667,11.7981602063533,22.756439294171,3.67440124906049,-0.074831808288621,3,13.9,29.9
1.5,11.7980748431019,22.8776724631232,3.59959533265154,-0.0748059164089465,3,13.9,29.9
1.53333333333333,11.7979895435937,22.9964125386204,3.52481543501527,-0.0747798976362666,3,13.9,29.9
1.56666666666667,11.7979044063998,23.1126603853766,3.45006160438634,-0.074753830628933,3,13.9,29.9
1.6,11.7978195188112,23.2264168692387,3.37533383021109,-0.074727774175253,3,13.9,29.9
1.63333333333333,11.797734964153,23.3376828560044,3.30063206128121,-0.0747017689298808,3,13.9,29.9
1.66666666666667,11.7976508268898,23.4464592105757,3.22595622195465,-0.0746758393265612,3,13.9,29.9
1.7,11.7975671948866,23.552746796353,3.15130622574175,-0.074649996212893,3,13.9,29.9
1.73333333333333,11.7974841590415,23.6565464748009,3.07668198547488,-0.0746242402668722,3,13.9,29.9
1.76666666666667,11.7974018111439,23.7578591051367,3.00208341958845,-0.0745985658864297,3,13.9,29.9
1.8,11.7973202411198,23.8566855441083,2.92751045454868,-0.0745729650397733,3,13.9,29.9
1.83333333333333,11.7972395347764,23.9530266458351,2.85296302401285,-0.0745474305358327,3,13.8991319444444,29.9
1.86666666666667,11.7971597728229,24.0468832616953,2.77844106571918,-0.0745219582936651,3,13.8965277777778,29.9
1.9,11.7970810314396,24.138256240248,2.70394451731581,-0.0744965484033693,3,13.8921875,29.9
1.93333333333333,11.7970033841548,24.2271464271783,2.62947331230191,-0.0744712050138983,3,13.8861111111111,29.9
1.96666666666667,11.7969269044002,24.3135546652602,2.55502737700753,-0.0744459352943831,3,13.8782986111111,29.9
2,11.7968516679374,24.3974817943319,2.48060662915576,-0.0744207478517711,3,13.86875,29.9
2.03333333333333,11.7967777543759,24.4789286512783,2.4062109781272,-0.0743956510285568,3,13.8574652777778,29.9
2.06666666666667,11.7967052470161,24.5578960700194,2.33184032667113,-0.0743706514560674,3,13.8444444444444,29.9
2.1,11.7966342309758,24.6343848815015,2.25749457354147,-0.0743457531296601,3,13.8296875,29.9
2.13333333333333,11.7965647898002,24.7083967936229,2.18327946868048,-0.0742151048609938,3,13.8131944444444,29.9
2.16666666666667,11.7964969949291,24.7799448450076,2.1098060677478,-0.0734734009326843,3,13.7949652777778,29.9
2.2,11.796430892285,24.8490677781749,2.03786190828168,-0.071944159466117,3,13.775,29.9
2.23333333333333,11.7963665052833,24.9158225333059,1.96774091259479,-0.0701209956868911,3,13.7532986111111,29.9
2.26666666666667,11.7963038431178,24.9802713031191,1.8994928263861,-0.0682480862086896,3,13.7298611111111,29.9
2.3,11.7962429055222,25.0424752899115,1.83303955608844,-0.0664532702976575,3,13.7046875,29.9
2.33333333333333,11.7961836629402,25.102521858897,1.77003029320644,-0.0630092628820014,3,13.6777777777778,29.9
2.36666666666667,11.7961260806654,25.1604946272504,1.70858693285101,-0.0614433603554312,3,13.6491319444444,29.9
2.4,11.7960701436785,25.2164436468938,1.6485896096295,-0.0599973232215119,3,13.61875,29.9
2.43333333333333,11.7960158584919,25.2703867322447,1.58822275678001,-0.0603668528494894,3,13.5866319444444,29.9
2.46666666666667,11.7959632314398,25.3223399601723,1.52919095362338,-0.0590318031566284,3,13.5527777777778,29.9
2.5,11.7959122236178,25.3723759425799,1.47317688947321,-0.0560140641501643,3,13.5171875,29.9
2.53333333333333,11.7958627976188,25.4205651663008,1.41837786244437,-0.0547990270288461,3,13.4798611111111,29.9
2.56666666666667,11.7958149642179,25.4669183983569,1.3630140054437,-0.0553638570006687,3,13.4407986111111,29.9
2.6,11.795768735272,25.511445569004,1.3088103892324,-0.054203616211304,3,13.4,29.9
2.63333333333333,11.7957241000087,25.5541847394911,1.25572663145754,-0.0530837577748602,3,13.3574652777778,29.9
2.66666666666667,11.7956810486329,25.5951725531422,1.20372395307891,-0.0520026783786256,3,13.3131944444444,29.9
2.7,11.7956395716236,25.6344445871063,1.1527764422981,-0.0509475107808073,3,13.2671875,29.9
2.73333333333333,11.7955996590855,25.672035724102,1.1028692112703,-0.0499072310278053,3,13.2194444444444,29.9
2.76666666666667,11.7955612999111,25.7079808685384,1.05402392684667,-0.0488452844236233,3,13.1699652777778,29.9
2.8,11.795524480635,25.7423161381729,1.0062823221976,-0.0477416046490713,3,13.11875,29.9
2.83333333333333,11.7954891853766,25.7750788565562,0.959674208937029,-0.0466081132605739,3,13.0657986111111,29.9
2.86666666666667,11.7954553962232,25.8063071044196,0.914215205833122,-0.0454590031039072,3,13.0111111111111,29.9
2.9,11.7954230936569,25.8360392734662,0.869905161487381,-0.044310044345741,3,12.9546875,29.9
2.93333333333333,11.795392257754,25.8643127576453,0.826678692980364,-0.0432264685070167,3,12.8965277777778,29.9
2.96666666666667,11.7953628697135,25.8911622912586,0.78445634588175,-0.0422223470986145,3,12.8366319444444,29.9
3,11.7953349116664,25.9166202856857,0.743177278465685,-0.0412790674160651,3,12.775,29.9
3.03333333333333,11.7953083662955,25.9407173625527,0.702794215718705,-0.0403830627469797,3,12.7116319444444,29.9
3.06666666666667,11.7952832165526,25.9634827455623,0.663270581755148,-0.0395236339635575,3,12.6465277777778,29.9
3.1,11.7952594451799,25.9849448435574,0.624600449018106,-0.0386701327370413,3,12.5796875,29.9
3.13333333333333,11.7952370336238,26.0051324937398,0.586806807493917,-0.0377936415241896,3,12.5111111111111,29.9
3.16666666666667,11.7952159618484,26.0240751584618,0.549902508872251,-0.0369042986216654,3,12.4407986111111,29.9
3.2,11.7951962086422,26.0418025562901,0.513890611655405,-0.0360118972168461,3,12.36875,29.9
3.23333333333333,11.7951777518518,26.0583443837358,0.478767136129262,-0.0351234755261427,3,12.2949652777778,29.9
3.26666666666667,11.7951605425922,26.073759164152,0.446264971803045,-0.0325021643262172,3,12.2194444444444,29.9
3.3,11.795144557428,26.0880757300649,0.412867775337863,-0.0333971964651818,3,12.1421875,29.9
3.33333333333333,11.7951297990005,26.1012926424518,0.380279585556335,-0.0325881897815282,3,12.0631944444444,29.9
3.36666666666667,11.7951162442606,26.1134362659551,0.348465167885468,-0.0318144176708672,3,11.9824652777778,29.9
3.4,11.7951038704035,26.1245318676781,0.317393704631002,-0.0310714632544654,3,11.9,29.9
3.43333333333333,11.7950926548453,26.1346037471092,0.287037797839535,-0.0303559067914679,3,11.8157986111111,29.9
3.46666666666667,11.7950825752321,26.1436753372764,0.257372729954408,-0.0296650678851261,3,11.7298611111111,29.9
3.5,11.7950736094743,26.1517692845102,0.228375914100051,-0.0289968158543578,3,11.6421875,29.9
3.53333333333333,11.795065735699,26.1589076174531,0.200039669745311,-0.0283362443547399,3,11.5527777777778,29.9
3.56666666666667,11.7950589311445,26.1651130846204,0.17241436885802,-0.0276253008872907,3,11.4616319444444,29.9
3.6,11.7950531712514,26.1704102632429,0.145548747398361,-0.026865621459659,3,11.36875,29.9
3.63333333333333,11.7950484302614,26.1748249926328,0.119470846215259,-0.0260779011831023,3,11.2741319444444,29.9
3.66666666666667,11.795044655512,26.1784128240649,0.0959347695091973,-0.0235360767060614,3,11.1777777777778,29.9
3.7,11.7950417944092,26.1812292818744,0.0731860889707843,-0.022748680538413,3,11.0796875,29.9
3.73333333333333,11.7950398212445,26.1833003313889,0.0512078685831481,-0.0219782203876362,3,10.9798611111111,29.9
3.76666666666667,11.7950387110585,26.1846513301132,0.0299814298648901,-0.021226438718258,3,10.8782986111111,29.9
3.8,11.7950384397926,26.1853069702659,0.00949128823994385,-0.0204901416249462,3,10.775,29.9
3.83333333333333,11.7950389285189,26.1853529179225,0.00138466908224721,-0.00810661915769664,5,10.6699652777778,29.9
3.86666666666667,11.795039704865,26.1853093443642,0.000530933257807883,-0.000853735824439327,5,10.5631944444444,29.9
3.9,11.795039704865,26.1853093443642,0.000685933846275573,0.00015500058846769,5,10.4546875,29.9
3.93333333333333,11.795039704865,26.1853093443642,0.000908129483914573,0.000222195637638999,5,10.3444444444444,29.9
3.96666666666667,11.795039704865,26.1853093443642,0.00117393447064207,0.000265804986727494,5,10.2324652777778,29.9
4,11.795039704865,26.1853093443642,0.00145364920384237,0.000279714733200303,5,10.11875,29.9
4.03333333333333,11.795039704865,26.1853093443642,0.00171572483509263,0.000262075631250259,5,10.0032986111111,29.9
4.06666666666667,11.795039704865,26.1853093443642,0.0019305328805046,0.000214808045411977,5,9.88611111111111,29.9
4.1,11.795039704865,26.1853093443642,0.00217172597181905,0.000241193091314442,5,9.7671875,29.9
4.13333333333333,11.7950393049868,26.1857507907956,0.0234706500295478,0.0212989240577287,4,9.64652777777778,29.9
4.16666666666667,11.7950379582448,26.1872374926469,0.0658649747549866,0.0423943247254388,4,9.52413194444444,29.9
4.2,11.7950352041349,26.1902766017584,0.116472818041232,0.0506078432862455,4,9.4,29.9
4.23333333333333,11.7950309284696,26.1949902906322,0.166274403917267,0.049801585876035,4,9.27413194444444,29.9
4.26666666666667,11.7950251519761,26.2013474113047,0.215041557832135,0.0487671539148679,4,9.14652777777778,29.9
4.3,11.7950178955212,26.2093108374154,0.262636791135467,0.0475952333033323,4,9.0171875,29.9
4.33333333333333,11.7950091755922,26.2188413098066,0.309070389224355,0.0464335980888879,4,8.88611111111111,29.9
4.36666666666667,11.7949990002471,26.229901120877,0.354399139304791,0.045328750080436,4,8.75329861111111,29.9
4.4,11.7949873686253,26.2424542666097,0.398668606511593,0.0442694672068015,4,8.61875,29.9
4.43333333333333,11.7949742712998,26.2564661105702,0.441916196847357,0.0432475903357645,4,8.48246527777778,29.9
4.46666666666667,11.7949596909885,26.2719031213338,0.484170236050369,0.042254039203012,4,8.34444444444444,29.9
4.5,11.7949436040166,26.2887322614511,0.525431881081436,0.0412616450310669,4,8.2046875,29.9
4.53333333333333,11.7949259822362,26.3069203412759,0.565697820429584,0.0402659393481483,4,8.06319444444444,29.9
4.56666666666667,11.7949067946019,26.3264341821663,0.604972514065291,0.0392746936357066,4,7.91996527777778,29.9
4.6,11.7948860090121,26.3472408430475,0.643265841909682,0.0382933278443911,4,7.775,29.9
4.63333333333333,11.7948635944403,26.3693077806784,0.680591431216638,0.0373255893069561,4,7.62829861111111,29.9
4.66666666666667,11.7948395231131,26.3926030873155,0.716978741237902,0.0363873100212637,4,7.47986111111111,29.9
4.7,11.7948137719906,26.4170964765874,0.752490734673937,0.0355119934360355,4,7.3296875,29.9
4.73333333333333,11.7947863245506,26.4427597598974,0.787185029053009,0.0346942943790713,4,7.17777777777778,29.9
4.76666666666667,11.7947571730386,26.4695664908922,0.821108176324702,0.0339231472716935,4,7.02413194444444,29.9
4.8,11.7947263202749,26.4974916434233,0.854298567126249,0.0331903908015463,4,6.86875,29.9
4.83333333333333,11.7946937808725,26.5265113710371,0.886788541450879,0.0324899743246301,4,6.71163194444444,29.9
4.86666666666667,11.794659581814,26.5566028182784,0.918604049854829,0.0318155084039505,4,6.55277777777778,29.9
4.9,11.7946237627854,26.5877435022451,0.949735005805814,0.0311309559509845,4,6.3921875,29.9
4.93333333333333,11.7945863763228,26.6199101976402,0.980169339920863,0.0304343341150498,4,6.22986111111111,29.9
4.96666666666667,11.7945474823427,26.6530831485073,1.01020890323956,0.0300395633186984,4,6.06579861111111,29.9
5,11.7945071306464,26.6872623032492,1.04072244832539,0.0305135450858316,4,5.9,29.9
5.03333333333333,11.7944653425672,26.7224834604115,1.07295348634105,0.0322310380156523,4,5.9,29.9
5.06666666666667,11.7944220983529,26.7588273409341,1.10832668821947,0.0353732018784234,4,5.9,29.9
5.1,11.7943773298772,26.7964222212218,1.14822571808153,0.0398990298620578,4,5.9,29.9
5.13333333333333,11.7943309206141,26.8354383772894,1.19375661747559,0.0455308993940597,4,5.9,29.9
5.16666666666667,11.7942827104193,26.8760772543149,1.24569896114191,0.0519423436663278,4,5.9,29.9
5.2,11.7942324987813,26.9185622735815,1.30459849561609,0.0588995344741761,4,5.9,29.9
5.23333333333333,11.7941800467602,26.9631313177845,1.37077393043659,0.0661754348205015,4,5.9,29.9
5.26666666666667,11.7941250803884,27.0100283918321,1.44426901091715,0.0734950804805627,4,5.9,29.9
5.3,11.7940672950259,27.0594954526405,1.52493956355168,0.0806705526345226,4,5.9,29.9
5.33333333333333,11.7940063585256,27.1117670986322,1.61248001625574,0.0875404527040602,4,5.9,29.9
5.36666666666667,11.7939419169803,27.167064776363,1.70641195532453,0.0939319390687954,4,5.9,29.9
5.4,11.7938736024558,27.225591544025,1.80610694912377,0.0996949937992351,4,5.9,29.9
5.43333333333333,11.7938010444654,27.2875258920019,1.91070828185082,0.104601332727057,4,5.9,29.9
5.46666666666667,11.7937238845061,27.353015290674,2.01925510583703,0.10854682398621,4,5.9,29.9
5.5,11.7936417865464,27.4221760618142,2.1308488213716,0.111593715534568,4,5.9,29.9
5.53333333333333,11.7935544460236,27.4950960048562,2.2446775686837,0.113828747312101,4,5.9,29.9
5.56666666666667,11.7934615984744,27.5718372987364,2.36001515711889,0.115337588435185,4,5.9,29.9
5.6,11.7933630266286,27.6524393262011,2.47622160012346,0.116206443004572,4,5.9,29.9
5.63333333333333,11.7932585637806,27.7369223565996,2.59281287255423,0.116591272430769,4,5.9,29.9
5.66666666666667,11.7931480944592,27.8252938284964,2.70947874618818,0.116665873633945,4,5.9,29.9
5.7,11.7930312228798,27.9175517105737,2.82595321988866,0.116474473700483,4,5.9,29.9
5.73333333333333,11.7929063732184,28.0136855641556,2.9419967707066,0.116043550817943,4,5.9,29.9
5.76666666666667,11.7927720115857,28.1136772045222,3.05737969205147,0.115382921344869,4,5.9,29.9
5.8,11.7926270766376,28.21750065674,3.17186126604682,0.114481573995348,4,5.9,29.9
5.83333333333333,11.7924709874734,28.3251209245172,3.28513557141511,0.113274305368293,4,5.9,29.9
5.86666666666667,11.792303590753,28.4364931539799,3.39694645015793,0.11181087874282,4,5.9,29.9
5.9,11.7921250649936,28.5515657340218,3.50713816030028,0.110191710142344,4,5.9,29.9
5.93333333333333,11.791935808667,28.670283075252,3.61562371183231,0.108485551532032,4,5.9,29.9
5.96666666666667,11.7917363308934,28.7925875633814,3.72236532242518,0.106741610592868,4,5.9,29.9
6,11.7915271570665,28.9184208532881,3.82735001736508,0.104984694939908,4,5.9,29.9
6.03333333333333,11.7913087574753,29.0477233854711,3.9304997602439,0.103149742878815,4,5.9,29.9
6.06666666666667,11.7910815010201,29.1804320463107,4.0317039006701,0.1012041404262,4,5.9,29.9
6.1,11.7908456269156,29.3164804703604,4.13086553749805,0.0991616368279464,4,5.9,29.9
6.13333333333333,11.7906012368296,29.4557977430043,4.22778832847153,0.0969227909734887,4,5.9,29.9
6.16666666666667,11.7903483081499,29.5983027710439,4.32198627658613,0.0941979481145916,4,5.9,29.9
6.2,11.7900867460173,29.7438804815258,4.41170014960192,0.0897138730157963,4,5.9,29.9
6.23333333333333,11.7898164891013,29.8923298102576,4.49371524221769,0.0820150926157668,4,5.9,29.9
6.26666666666667,11.7895375888457,30.0433389918699,4.56475947956042,0.0710442373427291,4,5.9,29.9
6.3,11.7892502525875,30.1964901897202,4.62170586901661,0.0569463894561926,4,5.9,29.9
6.33333333333333,11.7889548695259,30.3512754853279,4.66296521388836,0.0412593448717518,4,5.9,29.9
6.36666666666667,11.7886518706749,30.5072136365915,4.69156380729137,0.0285985934030082,4,5.9,29.9
6.4,11.7883415999547,30.6639450859324,4.71106676271692,0.0195029554255468,4,5.9,29.9
6.43333333333333,11.7880243479183,30.8212118380067,4.72404328323737,0.0129765205204517,1,5.9,29.9
6.46666666666667,11.7877003883822,30.9788287150947,4.73233366767194,0.00829038443457009,1,5.9,29.9
6.5,11.7873699940683,31.1366626928347,4.73725578517383,0.00492211750188964,1,5.9,29.9
6.53333333333333,11.7870334374762,31.2946180894698,4.73975301767006,0.00249723249623646,1,5.9,29.9
6.56666666666667,11.7866909828142,31.4526259493995,4.74050027761635,0.000747259946286327,1,5.9,29.9
6.6,11.7863428741125,31.6106364319446,4.7399799772273,-0.0005203003890486,1,5.9,29.9
6.63333333333333,11.7859893236464,31.7686133527452,4.73853645621961,-0.00144352100769574,1,5.9,29.9
