Time,x_ego,y_ego,velocity,acceleration,action,x_ped,y_ped
0,11.8,15.9,7,0,1,15.5,29.9
0.0333333333333333,11.8,16.1332703793943,6.99615577953002,-0.00384422046998356,1,15.3694444444444,29.9
0.0666666666666667,11.8,16.3664065988113,6.99196947109348,-0.00418630843653833,1,15.2444444444444,29.9
0.1,11.8,16.5994007552791,6.98769498718995,-0.00427448390352669,1,15.125,29.9
0.133333333333333,11.8,16.8322537852842,6.9834976545359,-0.00419733265404787,1,15.0111111111111,29.9
0.166666666666667,11.8,17.0649678802301,6.97935585456763,-0.00414179996826913,1,14.9027777777778,29.9
0.2,11.8,17.2975446186632,6.97525409491249,-0.00410175965514537,1,14.8,29.9
0.233333333333333,11.8,17.5299851399444,6.97118127319767,-0.00407282171482137,1,14.7027777777778,29.9
0.266666666666667,11.8,17.7622902687052,6.96712943294736,-0.00405184025031069,1,14.6111111111111,29.9
0.3,11.8,17.9944606040335,6.96309287213007,-0.00403656081728965,1,14.525,29.9
0.333333333333333,11.8,18.2264965833863,6.95906750439986,-0.00402536773020401,1,14.4444444444444,29.9
0.366666666666667,11.8,18.4583985283897,6.95505040137947,-0.00401710302039238,1,14.3694444444444,29.9
0.4,11.8,18.6901666776599,6.95103946463339,-0.00401093674607722,1,14.3,29.9
0.433333333333333,11.8,18.9218012103233,6.94703319054231,-0.00400627409108711,1,14.2361111111111,29.9
0.466666666666667,11.8,19.1533022628712,6.94303050173604,-0.00400268880626342,1,14.1777777777778,29.9
0.5,11.8,19.3846699412377,6.93903062623031,-0.00399987550573222,1,14.125,29.9
0.533333333333333,11.8,19.6159043294559,6.93503301077307,-0.00399761545723631,1,14.0777777777778,29.9
0.566666666666667,11.8,19.8470054958598,6.93103725873891,-0.00399575203416092,1,14.0361111111111,29.9
0.6,11.8,20.0779734975296,6.92704308564579,-0.003994173093127,1,14,29.9
0.633333333333333,11.8,20.3088083834769,6.92305028732138,-0.00399279832440236,1,13.9694444444444,29.9
0.666666666666667,11.800003301621,20.5395098336031,6.91903692383569,-0.0040133634856927,1,13.9444444444444,29.9
0.7,11.8000239771231,20.76984681544,6.90118252130596,-0.017854402529732,1,13.925,29.9
0.733333333333333,11.8000732336621,20.999271516593,6.86430077896257,-0.0368817423433914,3,13.9111111111111,29.9
0.766666666666667,11.8001568434983,21.2273517378978,6.82051458470468,-0.0437861942578905,3,13.9027777777778,29.9
0.8,11.8002767131845,21.4538860515436,6.77154753149251,-0.04896705321217,3,13.9,29.9
0.833333333333333,11.8004322904523,21.6786727105998,6.71565695620516,-0.0558905752873446,3,13.9,29.9
0.866666666666667,11.800621639085,21.9014813112597,6.65286607997442,-0.0627908762307463,3,13.9,29.9
0.9,11.8008420510469,22.1217933841673,6.56586808393385,-0.0869979960405711,3,13.9,29.9
0.933333333333333,11.8010903690402,22.3388020772494,6.45466661128415,-0.111201472649697,3,13.9,29.9
0.966666666666667,11.8013632475799,22.5517871342769,6.32445375124247,-0.130212860041675,3,13.9,29.9
1,11.8016573170917,22.7602591273143,6.18388713122541,-0.140566620017065,3,13.9,29.9
1.03333333333333,11.80196918906,22.9638438928782,6.03122521032019,-0.152661920905219,3,13.9,29.9
1.06666666666667,11.8022954496756,23.1621673466888,5.86821420113879,-0.163011009181403,3,13.9,29.9
1.1,11.8026328156357,23.3549423097612,5.69832199003328,-0.169892211105503,3,13.9,29.9
1.13333333333333,11.8029782246082,23.541939063375,5.52152798835735,-0.176794001675929,3,13.9,29.9
1.16666666666667,11.8033289188598,23.7229566358681,5.33957706207025,-0.181950926287106,3,13.9,29.9
1.2,11.8036824856169,23.8977944536031,5.15074768850958,-0.188829373560664,3,13.9,29.9
1.23333333333333,11.804036881088,24.0662519739041,4.95676266116084,-0.193985027348744,3,13.9,29.9
1.26666666666667,11.8043903931304,24.2281283159881,4.75587856710176,-0.200884094059077,3,13.9,29.9
1.3,11.804741520021,24.3831939197282,4.5481179213798,-0.207760645721967,3,13.9,29.9
1.33333333333333,11.805089022085,24.5313057183921,4.33864787337443,-0.209470048005366,3,13.9,29.9
1.36666666666667,11.8054318604047,24.6724349076567,4.12913244316999,-0.20951543020444,3,13.9,29.9
1.4,11.8057689757605,24.8065787389482,3.91953031417041,-0.209602128999584,3,13.9,29.9
1.43333333333333,11.8060991316952,24.933706428988,3.70816502190073,-0.211365292269678,3,13.9,29.9
1.46666666666667,11.8064209313701,25.0537884800349,3.49679154906463,-0.211373472836099,3,13.9,29.9
1.5,11.8067328249413,25.1667963111162,3.2837110907303,-0.213080458334332,3,13.9,29.9
1.53333333333333,11.8070330462202,25.2726442269241,3.06719642295265,-0.216514667777645,3,13.9,29.9
1.56666666666667,11.8073197805906,25.3712470045881,2.84900352182587,-0.218192901126782,3,13.9,29.9
1.6,11.8075913514075,25.4625775286527,2.63086290287815,-0.218140618947724,3,13.9,29.9
1.63333333333333,11.8078461184138,25.5465798540615,2.40931407495455,-0.221548827923593,3,13.9,29.9
1.66666666666667,11.8080826041491,25.6231982822237,2.18784010977838,-0.221473965176177,3,13.9,29.9
1.7,11.8082997156558,25.6924453784527,1.96738314686013,-0.220456962918246,3,13.9,29.9
1.73333333333333,11.8084967237395,25.7543874689477,1.74970890372357,-0.21767424313656,3,13.9,29.9
1.76666666666667,11.8086731874683,25.8091289810703,1.53539935937367,-0.214309544349897,3,13.9,29.9
1.8,11.8088288508837,25.8567864081368,1.32469260733778,-0.210706752035891,3,13.9,29.9
1.83333333333333,11.8089635888023,25.8974823241632,1.11772118117976,-0.206971426158024,3,13.8991319444444,29.9
1.86666666666667,11.8090773716135,25.931343076298,0.914621228219573,-0.203099952960186,3,13.8965277777778,29.9
1.9,11.8091702542974,25.9585022953695,0.71564771178884,-0.198973516430733,3,13.8921875,29.9
1.93333333333333,11.8092423586374,25.9790977940351,0.520791148948068,-0.194856562840772,3,13.8861111111111,29.9
1.96666666666667,11.809293858917,25.9932679123545,0.330143092109987,-0.190648056838081,3,13.8782986111111,29.9
2,11.8093249829634,26.0011536875796,0.143725878666117,-0.18641721344387,3,13.86875,29.9
2.03333333333333,11.8093373440536,26.0034666737658,0.044754233756229,-0.0989716449098879,3,13.8574652777778,29.9
2.06666666666667,11.8093395086966,26.0038548649512,0.0529528102845789,0.0081985765283499,5,13.8444444444444,29.9
2.1,11.8093306209101,26.002090649763,0.00256395635844825,-0.0503888539261307,3,13.8296875,29.9
2.13333333333333,11.8093306209101,26.002090649763,0.00420311681750255,0.0016391604590543,5,13.8131944444444,29.9
2.16666666666667,11.8093306209101,26.002090649763,0.00643340544226028,0.00223028862475773,5,13.7949652777778,29.9
2.2,11.8093306209101,26.002090649763,0.00903155376336785,0.00259814832110757,5,13.775,29.9
2.23333333333333,11.8093306209101,26.002090649763,0.0117273872763228,0.002695833512955,5,13.7532986111111,29.9
2.26666666666667,11.8093306209101,26.002090649763,0.0142400276007537,0.00251264032443089,5,13.7298611111111,29.9
2.3,11.8093306209101,26.002090649763,0.0163095858192339,0.00206955821848021,5,13.7046875,29.9
2.33333333333333,11.8093306209101,26.002090649763,0.0177223471748787,0.00141276135564476,5,13.6777777777778,29.9
2.36666666666667,11.8093306209101,26.002090649763,0.0183282990778784,0.000605951902999686,5,13.6491319444444,29.9
2.4,11.8093306209101,26.002090649763,0.0180506534261154,-0.000277645651762977,5,13.61875,29.9
2.43333333333333,11.8093306209101,26.002090649763,0.0168877099966834,-0.00116294342943203,5,13.5866319444444,29.9
2.46666666666667,11.8093306209101,26.002090649763,0.0149079654362386,-0.00197974456044476,5,13.5527777777778,29.9
2.5,11.8093306209101,26.002090649763,0.012239773202892,-0.00266819223334659,5,13.5171875,29.9
2.53333333333333,11.8093306209101,26.002090649763,0.00905709917531294,-0.0031826740275791,5,13.4798611111111,29.9
2.56666666666667,11.8093306209101,26.002090649763,0.00556300342157717,-0.00349409575373577,5,13.4407986111111,29.9
2.6,11.8093306209101,26.002090649763,0.00197242849549954,-0.00359057492607763,5,13.4,29.9
2.63333333333333,11.8093306209101,26.002090649763,0.00150428674648837,-0.000468141749011169,5,13.3574652777778,29.9
2.66666666666667,11.8093306209101,26.002090649763,0.00467599268264949,0.00317170593616111,5,13.3131944444444,29.9
2.7,11.8093306209101,26.002090649763,0.0073825348744111,0.00270654219176162,5,13.2671875,29.9
2.73333333333333,11.8093306209101,26.002090649763,0.00950322072801169,0.00212068585360059,5,13.2194444444444,29.9
2.76666666666667,11.8093306209101,26.002090649763,0.0109617030626325,0.00145848233462079,5,13.1699652777778,29.9
2.8,11.8093306209101,26.002090649763,0.0117273271419855,0.000765624079353067,5,13.11875,29.9
2.83333333333333,11.8093306209101,26.002090649763,0.0118132355226972,8.59083807116297e-05,5,13.0657986111111,29.9
2.86666666666667,11.8093306209101,26.002090649763,0.011271718793486,-0.000541516729211178,5,13.0111111111111,29.9
2.9,11.8093306209101,26.002090649763,0.0101874339012589,-0.00108428489222713,5,12.9546875,29.9
2.93333333333333,11.8093306209101,26.002090649763,0.00866918433144928,-0.00151824956980958,5,12.8965277777778,29.9
2.96666666666667,11.8093306209101,26.002090649763,0.00684097135017677,-0.00182821298127251,5,12.8366319444444,29.9
3,11.8093306209101,26.002090649763,0.00483298972816669,-0.00200798162201008,5,12.775,29.9
3.03333333333333,11.8093306209101,26.002090649763,0.00277316424657288,-0.00205982548159381,5,12.7116319444444,29.9
3.06666666666667,11.8093306209101,26.002090649763,0.000779715712375903,-0.00199344853419697,5,12.6465277777778,29.9
3.1,11.8093306209101,26.002090649763,0.00104488140749381,0.000265165695117908,5,12.5796875,29.9
3.13333333333333,11.8093306209101,26.002090649763,0.00261832220307752,0.00157344079558371,5,12.5111111111111,29.9
3.16666666666667,11.8093306209101,26.002090649763,0.00388118033312854,0.00126285813005103,5,12.4407986111111,29.9
3.2,11.8093306209101,26.002090649763,0.00479792962624212,0.000916749293113576,5,12.36875,29.9
3.23333333333333,11.8093306209101,26.002090649763,0.00535640966739643,0.00055848004115431,5,12.2949652777778,29.9
3.26666666666667,11.8093306209101,26.002090649763,0.00556594955226235,0.000209539884865917,5,12.2194444444444,29.9
3.3,11.8093306209101,26.002090649763,0.00545442246432687,-0.000111527087935476,5,12.1421875,29.9
3.33333333333333,11.8093306209101,26.002090649763,0.00506453732699603,-0.000389885137330845,5,12.0631944444444,29.9
3.36666666666667,11.8093306209101,26.002090649763,0.00444968364021874,-0.000614853686777289,5,11.9824652777778,29.9
3.4,11.8093306209101,26.002090649763,0.00366963424712636,-0.000780049393092374,5,11.9,29.9
3.43333333333333,11.8093306209101,26.002090649763,0.00278638173195989,-0.000883252515166473,5,11.8157986111111,29.9
3.46666666666667,11.8093306209101,26.002090649763,0.00186034161647639,-0.000926040115483498,5,11.7298611111111,29.9
3.5,11.8093306209101,26.002090649763,0.000947103975781484,-0.000913237640694907,5,11.6421875,29.9
3.53333333333333,11.8093306209101,26.002090649763,9.48589733014956e-05,-0.000852245002479989,5,11.5527777777778,29.9
3.56666666666667,11.8093306209101,26.002090649763,0.000657434762848862,0.000562575789547366,5,11.4616319444444,29.9
3.6,11.8093306209101,26.002090649763,0.00128112345055878,0.000623688687709921,5,11.36875,29.9
3.63333333333333,11.8093306209101,26.002090649763,0.00175820510853206,0.00047708165797328,5,11.2741319444444,29.9
3.66666666666667,11.8093306209101,26.002090649763,0.00208102139720403,0.000322816288671969,5,11.1777777777778,29.9
3.7,11.8093306209101,26.002090649763,0.00225139540593821,0.000170374008734179,5,11.0796875,29.9
3.73333333333333,11.8093306209101,26.002090649763,0.00227933624420846,2.79408382702537e-05,5,10.9798611111111,29.9
3.76666666666667,11.8093306209101,26.002090649763,0.00218144121301845,-9.78950311900169e-05,5,10.8782986111111,29.9
3.8,11.8093306209101,26.002090649763,0.00197912710291786,-0.000202314110100585,5,10.775,29.9
3.83333333333333,11.8093306209101,26.002090649763,0.00169681497784,-0.000282312125077866,5,10.6699652777778,29.9
3.86666666666667,11.8093306209101,26.002090649763,0.00136017917289311,-0.000336635804946882,5,10.5631944444444,29.9
3.9,11.8093306209101,26.002090649763,0.000994552855878887,-0.000365626317014228,5,10.4546875,29.9
3.93333333333333,11.8093306209101,26.002090649763,0.00062356112664658,-0.000370991729232306,5,10.3444444444444,29.9
3.96666666666667,11.8093306209101,26.002090649763,0.000268029943942649,-0.000355531182703931,5,10.2324652777778,29.9
4,11.8093306209101,26.002090649763,5.48032911662587e-05,-0.00021322665277639,5,10.11875,29.9
4.03333333333333,11.8093306209101,26.002090649763,0.000331772597401525,0.000276969306235266,5,10.0032986111111,29.9
4.06666666666667,11.8093306209101,26.002090649763,0.000553973193455341,0.000222200596053816,5,9.88611111111111,29.9
4.1,11.8093306209101,26.002090649763,0.000716686744845036,0.000162713551389695,5,9.7671875,29.9
4.13333333333333,11.8093306209101,26.002090649763,0.000819081973739574,0.000102395228894538,5,9.64652777777778,29.9
4.16666666666667,11.8093306209101,26.002090649763,0.000863737996585486,4.46560228459117e-05,5,9.52413194444444,29.9
4.2,11.8093306209101,26.002090649763,0.000856041444698033,-7.69655188745302e-06,5,9.4,29.9
4.23333333333333,11.8093306209101,26.002090649763,0.00080350864591263,-5.25327987854023e-05,5,9.27413194444444,29.9
4.26666666666667,11.8093306209101,26.002090649763,0.00071508137288103,-8.84272730316001e-05,5,9.14652777777778,29.9
4.3,11.8093306209101,26.002090649763,0.000600439477552123,-0.000114641895328907,5,9.0171875,29.9
4.33333333333333,11.8093306209101,26.002090649763,0.000469366773227197,-0.000131072704324926,5,8.88611111111111,29.9
4.36666666666667,11.8093306209101,26.002090649763,0.000331198449628614,-0.000138168323598583,5,8.75329861111111,29.9
4.4,11.8093306209101,26.002090649763,0.000194369739227703,-0.000136828710400911,5,8.61875,29.9
4.43333333333333,11.8093306209101,26.002090649763,6.60770604151226e-05,-0.000128292678812581,5,8.48246527777778,29.9
4.46666666666667,11.8093306209101,26.002090649763,4.79450746404184e-05,-1.81319857747042e-05,5,8.34444444444444,29.9
4.5,11.8093306209101,26.002090649763,0.000143535103314927,9.55900286745091e-05,5,8.2046875,29.9
4.53333333333333,11.8093306209101,26.002090649763,0.000218112922377946,7.45778190630184e-05,5,8.06319444444444,29.9
4.56666666666667,11.8093306209101,26.002090649763,0.000270599813624456,5.248689124651e-05,5,7.91996527777778,29.9
4.6,11.8093306209101,26.002090649763,0.000301266744058483,3.06669304340272e-05,5,7.775,29.9
4.63333333333333,11.8093306209101,26.002090649763,0.000311529616636469,1.02628725779858e-05,5,7.62829861111111,29.9
4.66666666666667,11.8093306209101,26.002090649763,0.00030371038047074,-7.81923616572896e-06,5,7.47986111111111,29.9
4.7,11.8093306209101,26.002090649763,0.000280782124274869,-2.29282561958713e-05,5,7.3296875,29.9
4.73333333333333,11.8093306209101,26.002090649763,0.000246114580212538,-3.46675440623307e-05,5,7.17777777777778,29.9
4.76666666666667,11.8093306209101,26.002090649763,0.000203234085982792,-4.28804942297461e-05,5,7.02413194444444,29.9
4.8,11.8093306209101,26.002090649763,0.000155609225477699,-4.76248605050925e-05,5,6.86875,29.9
4.83333333333333,11.8093306209101,26.002090649763,0.000106470318557163,-4.91389069205364e-05,5,6.71163194444444,29.9
4.86666666666667,11.8093306209101,26.002090649763,5.86678638434746e-05,-4.78024547136882e-05,5,6.55277777777778,29.9
4.9,11.8093306209101,26.002090649763,1.45721311377427e-05,-4.40957327057319e-05,5,6.3921875,29.9
4.93333333333333,11.8093306209101,26.002090649763,2.39865067622547e-05,9.41437562451196e-06,5,6.22986111111111,29.9
4.96666666666667,11.8093306209101,26.002090649763,5.57391162321577e-05,3.17526094699031e-05,5,6.06579861111111,29.9
5,11.8093306209101,26.002090649763,7.9965966940411e-05,2.42268507082533e-05,5,5.9,29.9
5.03333333333333,11.8093306209101,26.002090649763,9.6456103163915e-05,1.6490136223504e-05,5,5.9,29.9
5.06666666666667,11.8093306209101,26.002090649763,0.000105445051337459,8.98894817354427e-06,5,5.9,29.9
5.1,11.8093306209101,26.002090649763,0.000107537274365392,2.09222302793262e-06,5,5.9,29.9
5.13333333333333,11.8093306209101,26.002090649763,0.000103619855127362,-3.91741923802989e-06,5,5.9,29.9
5.16666666666667,11.8093306209101,26.002090649763,9.4773421920097e-05,-8.84643320726496e-06,5,5.9,29.9
5.2,11.8093306209101,26.002090649763,0.000180798023801035,8.60246018809381e-05,5,5.9,29.9
5.23333333333333,11.8093313842273,26.0024160658783,0.0155942175155421,0.0154134194917411,5,5.9,29.9
5.26666666666667,11.8093335955952,26.0033588143196,0.0409431262011816,0.0253489086856395,4,5.9,29.9
5.3,11.8093380478325,26.0052566561873,0.0728702109493678,0.0319270847481863,4,5.9,29.9
5.33333333333333,11.8093452491677,26.0083255626985,0.111178347404317,0.0383081364549491,4,5.9,29.9
5.36666666666667,11.8093556279857,26.0127465979716,0.153971219463535,0.0427928720592182,4,5.9,29.9
5.4,11.8093696034892,26.0186948291512,0.202784512786913,0.0488132933233779,4,5.9,29.9
5.43333333333333,11.8093873952938,26.0262524302232,0.250516553154988,0.0477320403680747,4,5.9,29.9
5.46666666666667,11.8094089857965,26.0353821799055,0.297123481958021,0.0466069288030331,4,5.9,29.9
5.5,11.809434414241,26.0460472855316,0.342647856913831,0.04552437495581,4,5.9,29.9
5.53333333333333,11.8094637952881,26.0582123614689,0.387127981802682,0.0444801248888512,4,5.9,29.9
5.56666666666667,11.809497327374,26.0718431911556,0.430595765513801,0.0434677837111194,4,5.9,29.9
5.6,11.8095352705799,26.0869065322434,0.473077426774705,0.0424816612609031,4,5.9,29.9
5.63333333333333,11.8095779221144,26.1033697010235,0.514577498675018,0.0415000719003134,4,5.9,29.9
5.66666666666667,11.8096255662099,26.1211998484668,0.555088521407142,0.0405110227321238,4,5.9,29.9
5.7,11.8096784941758,26.1403639890295,0.594611233479351,0.0395227120722089,4,5.9,29.9
5.73333333333333,11.8097370041082,26.1608292628266,0.633153024834305,0.0385417913549538,4,5.9,29.9
5.76666666666667,11.8098013876778,26.1825631270679,0.670725896292582,0.0375728714582771,4,5.9,29.9
5.8,11.8098719160848,26.2055335311648,0.707350679930559,0.0366247836379771,4,5.9,29.9
5.83333333333333,11.8099488274464,26.22970970105,0.743084518573389,0.0357338386428298,4,5.9,29.9
5.86666666666667,11.8100323151352,26.2550629648776,0.777988312195119,0.03490379362173,4,5.9,29.9
5.9,11.8101225152008,26.2815664836491,0.812110949875723,0.0341226376806048,4,5.9,29.9
5.93333333333333,11.8102194960196,26.3091949054787,0.845492452396049,0.0333815025203259,4,5.9,29.9
5.96666666666667,11.8103232511978,26.3379241084682,0.878166276930381,0.0326738245343318,4,5.9,29.9
6,11.8104336961709,26.3677310073647,0.910161128233508,0.0319948513031275,4,5.9,29.9
6.03333333333333,11.8105506682972,26.398593210908,0.941480937532483,0.0313198092989746,4,5.9,29.9
6.06666666666667,11.8106738805762,26.4304876573308,0.972090829510091,0.0306098919776076,4,5.9,29.9
6.1,11.8108027872578,26.4633903036963,1.00196988457523,0.0298790550651374,4,5.9,29.9
6.13333333333333,11.8109367484406,26.4972766333495,1.03110962076906,0.0291397361938299,4,5.9,29.9
6.16666666666667,11.811075106313,26.5321219736606,1.05950951575801,0.0283998949889501,4,5.9,29.9
6.2,11.8112172151187,26.5679017633463,1.08717677558106,0.0276672598230521,4,5.9,29.9
6.23333333333333,11.8113624075517,26.6045917746254,1.11412403630773,0.026947260726665,4,5.9,29.9
6.26666666666667,11.811509837461,26.6421682673467,1.14036819671176,0.0262441604040344,4,5.9,29.9
6.3,11.811658710021,26.6806082824955,1.16594241957339,0.0255742228616318,4,5.9,29.9
6.33333333333333,11.8118083829472,26.7198902499459,1.19089210773058,0.0249496881571918,4,5.9,29.9
6.36666666666667,11.8119583943689,26.7599940160827,1.21525612298133,0.0243640152507443,4,5.9,29.9
6.4,11.8121084799011,26.8009006187973,1.23906726665597,0.0238111436746431,4,5.9,29.9
6.43333333333333,11.8122585788724,26.8425921632887,1.26236161385342,0.0232943471974489,4,5.9,29.9
6.46666666666667,11.8124088330662,26.885053106261,1.28526661292124,0.0229049990678245,4,5.9,29.9
6.5,11.8125595841487,26.9282749393687,1.30807662824884,0.022810015327599,4,5.9,29.9
6.53333333333333,11.8127113629534,26.9722613169327,1.33121754932998,0.0231409210811331,4,5.9,29.9
