Time,x_ego,y_ego,velocity,acceleration,action,x_ped,y_ped
0,11.8,8.9,5,0,1,15.5,29.9
0.0333333333333333,11.8000042639419,9.06660768883574,4.99642262753217,-0.00357737246783252,1,15.5,29.9
0.0666666666666667,11.8000316183523,9.23309265283679,4.99264772639562,-0.00377490113654755,1,15.5,29.9
0.1,11.8000983301086,9.3994492943029,4.98873189015102,-0.00391583624460079,1,15.5,29.9
0.133333333333333,11.8002137714057,9.56567361239838,4.98471560171126,-0.00401628843975921,1,15.5,29.9
0.166666666666667,11.8003816117201,9.73176274936765,4.9806277503672,-0.00408785134405676,1,15.5,29.9
0.2,11.8006012807972,9.89771466676994,4.97648894816197,-0.00413880220523488,1,15.5,29.9
0.233333333333333,11.8008693967493,10.063527914737,4.97231393273914,-0.00417501542283105,1,15.5,29.9
0.266666666666667,11.8011803924671,10.2292014675952,4.96811321002626,-0.00420072271288152,1,15.5,29.9
0.3,11.8015260262562,10.3947346072509,4.96389435458082,-0.00421885544543876,1,15.5,29.9
0.333333333333333,11.8018971448845,10.5601268385237,4.95966277465836,-0.00423157992245837,1,15.5,29.9
0.366666666666667,11.8022817387127,10.7253778304056,4.95542245130839,-0.00424032334997015,1,15.5,29.9
0.4,11.8026699831074,10.8904873672465,4.95117643569256,-0.00424601561583327,1,15.5,29.9
0.433333333333333,11.8030554721279,11.0554553129018,4.94692691742212,-0.00424951827043873,1,15.5,29.9
0.466666666666667,11.8034347981677,11.2202815857106,4.94267543731191,-0.00425148011020759,1,15.5,29.9
0.5,11.8038070209906,11.3849661411452,4.93842306507952,-0.00425237223238639,1,15.5,29.9
0.533333333333333,11.8041731171004,11.5495089600875,4.93417053937714,-0.00425252570238044,1,15.5,29.9
0.566666666666667,11.8045354521475,11.7139100410338,4.92991837157205,-0.00425216780509174,1,15.5,29.9
0.6,11.8048972891148,11.8781693949462,4.92566691873584,-0.00425145283621298,1,15.5,29.9
0.633333333333333,11.8052623338133,12.0422870418498,4.92141643293723,-0.00425048579861098,1,15.5,29.9
0.666666666666667,11.8056343217699,12.2062630085891,4.91716709354764,-0.00424933938958461,1,15.5,29.9
0.7,11.8060166593002,12.3700973273632,4.91291902802656,-0.00424806552107793,1,15.5,29.9
0.733333333333333,11.8064121390587,12.5337900347842,4.90867232538421,-0.00424670264234983,1,15.5,29.9
0.766666666666667,11.8068227516194,12.697341171264,4.90442704546664,-0.00424527991757095,1,15.5,29.9
0.8,11.8072496079493,12.8607507805706,4.9001832262602,-0.00424381920644379,1,15.5,29.9
0.833333333333333,11.8076929744784,13.0240189094235,4.89594089043723,-0.00424233582296818,1,15.5,29.9
0.866666666666667,11.8081524064884,13.1871456070433,4.89170005142038,-0.00424083901684646,1,15.5,29.9
0.9,11.8086269511504,13.3501309246207,4.88746071855602,-0.00423933286436196,1,15.5,29.9
0.933333333333333,11.8091153824836,13.5129749147208,4.8832229007693,-0.00423781778672527,1,15.5,29.9
0.966666666666667,11.8096164288912,13.6756776306764,4.87898660833532,-0.00423629243397716,1,15.5,29.9
1,11.8101289598033,13.8382391260381,4.87475185291996,-0.00423475541536078,1,15.5,29.9
1.03333333333333,11.8106521095349,14.0006594541429,4.87051864649906,-0.00423320642090097,1,15.5,29.9
1.06666666666667,11.8111853307644,14.1629386678397,4.86628699992936,-0.0042316465696981,1,15.5,29.9
1.1,11.8117283837641,14.3250768193802,4.86205692179494,-0.00423007813442311,1,15.5,29.9
1.13333333333333,11.8122812778989,14.4870739604528,4.85782841783455,-0.00422850396039198,1,15.5,29.9
1.16666666666667,11.8128441872947,14.6489301423177,4.8536014909549,-0.00422692687964421,1,15.5,29.9
1.2,11.8134173626405,14.810645415988,4.84937614166495,-0.00422534928995244,1,15.5,29.9
1.23333333333333,11.8140010567432,14.9722198324068,4.84515236873075,-0.00422377293420251,1,15.5,29.9
1.26666666666667,11.8145954744179,15.1336534425821,4.84093016988791,-0.00422219884283415,1,15.5,29.9
1.3,11.8152007496046,15.2949462976606,4.83670954249698,-0.00422062739093398,1,15.5,29.9
1.33333333333333,11.8158169460501,15.4560984489392,4.83249048406147,-0.0042190584355053,1,15.5,29.9
1.36666666666667,11.8164435051577,15.6171099496607,4.82827295838463,-0.00421752567684308,1,15.5,29.9
1.4,11.8170778879235,15.777980859686,4.82405694932113,-0.00421600906350417,1,15.5,29.9
1.43333333333333,11.8177178727642,15.9387112384417,4.81984248349806,-0.0042144658230665,1,15.5,29.9
1.46666666666667,11.8183621595093,16.099301142713,4.81562958142542,-0.00421290207263514,1,15.5,29.9
1.5,11.8190102265455,16.2597506268111,4.81141825557176,-0.00421132585365935,1,15.5,29.9
1.53333333333333,11.8196621390212,16.4200597429976,4.80720851133834,-0.0042097442334228,1,15.5,29.9
1.56666666666667,11.820318352177,16.5802285420231,4.80300034919972,-0.00420816213861741,1,15.5,29.9
1.6,11.8209795391057,16.7402570736607,4.79879376680788,-0.00420658239184579,1,15.5,29.9
1.63333333333333,11.8216464571399,16.9001453871599,4.794588760537,-0.00420500627087872,1,15.5,29.9
1.66666666666667,11.8223198546819,17.0598935315899,4.79038532641968,-0.00420343411731849,1,15.5,29.9
1.7,11.8230004123241,17.219501556079,4.78618346062529,-0.00420186579439275,1,15.5,29.9
1.73333333333333,11.8236887087884,17.3789695099731,4.78198315965227,-0.00420030097301893,1,15.5,29.9
1.76666666666667,11.8243852026743,17.5382974429409,4.77778442036193,-0.00419873929033709,1,15.5,29.9
1.8,11.825090223717,17.6974854050453,4.77358723993822,-0.00419718042371109,1,15.5,29.9
1.83333333333333,11.825803970604,17.8565334467899,4.76939161583172,-0.00419562410650265,1,15.5,29.9
1.86666666666667,11.8265265150633,18.0154416191375,4.76519754572798,-0.00419407010374329,1,15.5,29.9
1.9,11.8272578131982,18.1742099734963,4.76100502756029,-0.00419251816768362,1,15.5,29.9
1.93333333333333,11.8279977247966,18.3328385616654,4.75681405956385,-0.00419096799643803,1,15.5,29.9
1.96666666666667,11.8287460400053,18.4913274357432,4.75262464034706,-0.00418941921679838,1,15.5,29.9
2,11.829502511007,18.6496766480044,4.74843676894475,-0.00418787140230847,1,15.5,29.9
2.03333333333333,11.8302668848946,18.8078862507634,4.74425044482144,-0.00418632412330489,1,15.5,29.9
2.06666666666667,11.8310389333164,18.9659562962432,4.74006566780882,-0.00418477701262265,1,15.5,29.9
2.1,11.8318184748831,19.1238868364691,4.73588243798388,-0.00418322982494423,1,15.5,29.9
2.13333333333333,11.8326053876625,19.2816779232015,4.73170075551286,-0.00418168247101836,1,15.5,29.9
2.16666666666667,11.833399610984,19.4393296079145,4.72752062049461,-0.00418013501824621,1,15.5,29.9
2.2,11.8342011377305,19.5968419418187,4.7233420328342,-0.00417858766041501,1,15.5,29.9
2.23333333333333,11.8350099998664,19.7542149759161,4.71916499216661,-0.00417704066758695,1,15.5,29.9
2.26666666666667,11.8358262508076,19.9114487610745,4.71498949783694,-0.00417549432967235,1,15.5,29.9
2.3,11.8366493635169,20.068543350866,4.71081552205683,-0.00417397578010803,1,15.5,29.9
2.33333333333333,11.8374767908161,20.2254988085854,4.70664305267741,-0.00417246937942206,1,15.5,29.9
2.36666666666667,11.8383062937157,20.3823151965028,4.70247211088912,-0.00417094178829025,1,15.5,29.9
2.4,11.8391365538751,20.5389925727564,4.69830271223586,-0.00416939865325894,1,15.5,29.9
2.43333333333333,11.8399670314374,20.6955309917961,4.69413486530257,-0.00416784693328598,1,15.5,29.9
2.46666666666667,11.8407977803027,20.8519305051152,4.68996857296113,-0.00416629234143873,1,15.5,29.9
2.5,11.8416292610126,21.0081911620721,4.68580383446508,-0.0041647384960477,1,15.5,29.9
2.53333333333333,11.8424621763753,21.1643130106613,4.68164064730246,-0.00416318716262687,1,15.5,29.9
2.56666666666667,11.8432973408072,21.3202960981546,4.67747900840449,-0.00416163889796817,1,15.5,29.9
2.6,11.8441355837514,21.4761404722561,4.6733190209508,-0.00415998745369262,1,15.5,29.9
2.63333333333333,11.8449776816989,21.6318462154424,4.66916356445904,-0.00415545649175453,1,15.5,29.9
2.66666666666667,11.8458243120374,21.7874136202204,4.66502253216244,-0.00414103229660689,1,15.5,29.9
2.7,11.8466760223067,21.9428434120003,4.6609114320533,-0.00411110010913607,1,15.5,29.9
2.73333333333333,11.8475332109101,22.0981368759573,4.65684765339112,-0.00406377866217955,1,15.5,29.9
2.76666666666667,11.8483961185019,22.2532958616085,4.65284719224464,-0.0040004611464779,1,15.5,29.9
2.8,11.8492648310032,22.4083227006298,4.6489225978487,-0.00392459439594095,1,15.5,29.9
2.83333333333333,11.8501392949641,22.5632200520656,4.64508056538682,-0.00384203246188175,1,15.5,29.9
2.86666666666667,11.8510193446167,22.7179906953858,4.64132186520273,-0.00375870018408708,1,15.5,29.9
2.9,11.8519047382949,22.8726373613126,4.637635327605,-0.00368653759773263,1,15.5,29.9
2.93333333333333,11.8527952905951,23.0271794901739,4.63595864781675,-0.00167667978825126,1,15.5,29.9
2.96666666666667,11.8536916920992,23.1817967490189,4.64304209660785,0.00708344879109735,1,15.5,29.9
3,11.8545956202939,23.3368392320056,4.66162668598216,0.0185845893743171,4,15.5,29.9
3.03333333333333,11.8555090523217,23.4926922585831,4.69150021306661,0.0298735270844466,4,15.5,29.9
3.06666666666667,11.8564339401608,23.6497129301217,4.73148097320882,0.0399807601422086,4,15.5,29.9
3.1,11.8573721354841,23.8082163859907,4.78024266993532,0.0487616967264977,4,15.5,29.9
3.13333333333333,11.8583253557493,23.9684725263322,4.83641925274147,0.0561765828061578,4,15.5,29.9
3.16666666666667,11.8592951590233,24.1307062824298,4.89869398777295,0.0622747350314752,4,15.5,29.9
3.2,11.8602829302296,24.2951008136452,4.96588944801693,0.0671954602439842,4,15.5,29.9
3.23333333333333,11.8612898818526,24.4618031125849,5.03701852596606,0.0711290779491316,4,15.5,29.9
3.26666666666667,11.8623170668304,24.6309307861416,5.11130642773861,0.0742879017725429,4,15.5,29.9
3.3,11.8633654009552,24.8025790666043,5.18818352303231,0.0768770952937015,4,15.5,29.9
3.33333333333333,11.8644356924277,24.9768275317325,5.26727532722797,0.0790918041956621,4,15.5,29.9
3.36666666666667,11.8655286736642,25.1537458765183,5.34835227575991,0.0810769485319405,4,15.5,29.9
3.4,11.8666450250799,25.3333973615021,5.43124086437503,0.0828885886151154,4,15.5,29.9
3.43333333333333,11.8677853847026,25.5158393755447,5.5157547652628,0.084513900887778,4,15.5,29.9
3.46666666666667,11.8689503489029,25.7011224638286,5.6016729691894,0.0859182039265951,4,15.5,29.9
3.5,11.8701404739155,25.8892897463708,5.6887751283329,0.0871021591434973,4,15.5,29.9
3.53333333333333,11.8713562805431,26.0803772307752,5.77686211296569,0.0880869846327945,4,15.5,29.9
3.56666666666667,11.8725982647839,26.2744154294175,5.86580475755584,0.0889426445901487,4,15.5,29.9
3.6,11.873866907513,26.4714310219402,5.95549111913722,0.0896863615813794,4,15.5,29.9
3.63333333333333,11.8751626702219,26.671446316995,6.04575893938841,0.0902678202511877,4,15.5,29.9
3.66666666666667,11.8764859831327,26.8744775087889,6.13642649014673,0.0906675507583197,4,15.5,29.9
3.7,11.8778372498241,27.0805355965403,6.22735387323253,0.0909273830858002,4,15.5,29.9
3.73333333333333,11.87921684747,27.289626527223,6.31838167886802,0.0910278056354974,4,15.5,29.9
3.76666666666667,11.8806251305139,27.5017518329365,6.40941445954329,0.0910327806752704,4,15.5,29.9
3.8,11.8820624423145,27.7169105050634,6.50037179371268,0.0909573341693859,4,15.5,29.9
3.83333333333333,11.8835291106978,27.9350983235317,6.59116489348945,0.090793099776767,4,15.5,29.9
3.86666666666667,11.8850254586042,28.1563095956328,6.68179114458319,0.0906262510937461,4,15.5,29.9
3.9,11.886551817281,28.3805392972369,6.7722848007903,0.090493656207105,4,15.5,29.9
3.93333333333333,11.8881085283707,28.6077834866234,6.86267226362177,0.0903874628314716,4,15.5,29.9
3.96666666666667,11.8896959417865,28.8380390742915,6.95298234991514,0.0903100862933739,4,15.5,29.9
4,11.8913144165009,29.0713040277448,7.04324776355401,0.0902654136388632,4,15.5,29.9
4.03333333333333,11.8929643200838,29.3075773524895,7.13349742976577,0.0902496662117658,4,15.5,29.9
4.06666666666667,11.8946460272322,29.5468588823003,7.22374851518332,0.090251085417548,4,15.5,29.9
4.1,11.8963599127454,29.7891482162982,7.31396143069718,0.0902129155138613,4,15.5,29.9
4.13333333333333,11.8981063360904,30.0344424231498,7.40402590663,0.0900644759328131,4,15.5,29.9
4.16666666666667,11.8998856210729,30.2827330954095,7.49369060760527,0.089664700975276,4,15.5,29.9
4.2,11.9016986300339,30.5340892522554,7.59021352923457,0.0965229216292967,4,15.5,29.9
4.23333333333333,11.9035479770389,30.7888301898731,7.69548688108474,0.10527335185017,4,15.5,29.9
4.26666666666667,11.9054353258443,31.0471335526165,7.80313627734059,0.107649396255848,4,15.5,29.9
4.3,11.9073611779046,31.3090073661741,7.90923349721533,0.106097219874744,4,15.5,29.9
4.33333333333333,11.9093253287851,31.5743581459234,8.01146907713766,0.102235579922333,4,15.5,29.9
4.36666666666667,11.9113271480207,31.8430328764436,8.10853337971305,0.097064302575383,4,15.5,29.9
4.4,11.9133657697867,32.1148476288544,8.19982933857483,0.0912959588617817,4,15.5,29.9
4.43333333333333,11.9154402254237,32.3896073875759,8.28525725909613,0.0854279205213064,4,15.5,29.9
4.46666666666667,11.9175495281772,32.6671186863666,8.36496845548084,0.079711196384709,4,15.5,29.9
4.5,11.9196927036992,32.9471943455274,8.43914968741921,0.0741812319383701,4,15.5,29.9
4.53333333333333,11.9218687849334,33.2296530614432,8.50801965590118,0.0688699684819696,4,15.5,29.9
4.56666666666667,11.9240768400823,33.514323234478,8.57189603318663,0.0638763772854425,4,15.5,29.9
4.6,11.9263159760984,33.8010432634203,8.63107952215735,0.0591834889707261,4,15.5,29.9
4.63333333333333,11.9285853579787,34.0896637683495,8.68601736670149,0.0549378445441366,4,15.5,29.9
4.66666666666667,11.9308842338122,34.3800504200319,8.73711258730535,0.0510952206038588,4,15.5,29.9
4.7,11.933211905862,34.6720796156535,8.7845936751737,0.0474810878683538,4,15.5,29.9
4.73333333333333,11.9355676625517,34.9656292353465,8.82828054214,0.0436868669663006,4,15.5,29.9
4.76666666666667,11.9379506728286,35.2605648758903,8.86765563267128,0.03937509053128,4,15.5,29.9
4.8,11.9403599021875,35.5567293381047,8.90181682709688,0.0341611944256002,4,15.5,29.9
4.83333333333333,11.9427939512822,35.8539227798722,8.92913735620776,0.0273205291108756,4,15.5,29.9
4.86666666666667,11.9452500238441,36.1518997867558,8.94884654930649,0.0197091930987288,4,15.5,29.9
4.9,11.9477221902272,36.4504182387917,8.96193735370552,0.0130908043990328,1,15.5,29.9
4.93333333333333,11.9502049282911,36.7492883287255,8.97021544904112,0.00827809533559609,1,15.5,29.9
4.96666666666667,11.9526914251112,37.0483736116143,8.97504079061054,0.00482534156942194,1,15.5,29.9
5,11.9551772620653,37.3475761670874,8.97738742687741,0.00234663626687137,1,15.5,29.9
5.03333333333333,11.9576603978006,37.6468256589843,8.97795286181318,0.000565434935774434,1,15.5,29.9
5.06666666666667,11.960140128982,37.9460715043599,8.97723643463531,-0.000716427177877677,1,15.5,29.9
5.1,11.9626163915919,38.2452772614224,8.97559547114645,-0.00164096348885678,1,15.5,29.9
5.13333333333333,11.9650893607019,38.5444166065491,8.97328550594158,-0.0023099652048657,1,15.5,29.9
5.16666666666667,11.9675592691356,38.8434704495064,8.97048909077512,-0.00279641516646123,1,15.5,29.9
5.2,11.9700263588363,39.1424248640028,8.96733642118126,-0.00315266959386307,1,15.5,29.9
