Time,x_ego,y_ego,velocity,acceleration,action,x_ped,y_ped
0,11.8,15.9,7,0,1,15.5,29.9
0.0333333333333333,11.8,16.1332703793943,6.99615577953002,-0.00384422046998356,1,15.4502170138889,29.9
0.0666666666666667,11.8,16.3664065988113,6.99196947109348,-0.00418630843653833,1,15.4008680555556,29.9
0.1,11.8,16.5994007552791,6.98769498718995,-0.00427448390352669,1,15.351953125,29.9
0.133333333333333,11.8,16.8322537852842,6.9834976545359,-0.00419733265404787,1,15.3034722222222,29.9
0.166666666666667,11.8,17.0649678802301,6.97935585456763,-0.00414179996826913,1,15.2554253472222,29.9
0.2,11.8,17.2975446186632,6.97525409491249,-0.00410175965514537,1,15.2078125,29.9
0.233333333333333,11.8,17.5299851399444,6.97118127319767,-0.00407282171482137,1,15.1606336805556,29.9
0.266666666666667,11.8,17.7622902687052,6.96712943294736,-0.00405184025031069,1,15.1138888888889,29.9
0.3,11.8,17.9944606040335,6.96309287213007,-0.00403656081728965,1,15.067578125,29.9
0.333333333333333,11.8,18.2264965833863,6.95906750439986,-0.00402536773020401,1,15.0217013888889,29.9
0.366666666666667,11.8,18.4583985283897,6.95505040137947,-0.00401710302039238,1,14.9762586805556,29.9
0.4,11.8,18.6901666776599,6.95103946463339,-0.00401093674607722,1,14.93125,29.9
0.433333333333333,11.8,18.9218012103233,6.94703319054231,-0.00400627409108711,1,14.8866753472222,29.9
0.466666666666667,11.8000000419254,19.1533022628712,6.94303050173692,-0.00400268880538768,1,14.8425347222222,29.9
0.5,11.8000003044216,19.3846699412377,6.93903062624001,-0.00399987549690994,1,14.798828125,29.9
0.533333333333333,11.8000008880341,19.6159043294557,6.93503301079636,-0.00399761544364807,1,14.7555555555556,29.9
0.566666666666667,11.8000008511636,19.8470054958596,6.93103725892048,-0.0039957518758813,1,14.7127170138889,29.9
0.6,11.799995714441,20.0779734975241,6.92704309130389,-0.0039941676165931,1,14.6703125,29.9
0.633333333333333,11.799979165657,20.3088083833578,6.9230503163552,-0.00399277494868766,1,14.6283420138889,29.9
0.666666666666667,11.7999469778193,20.539365594866,6.91038288487797,-0.0126674314772277,1,14.5868055555556,29.9
0.7,11.7998972276012,20.7691260104956,6.87524321960472,-0.0351396652732481,3,14.545703125,29.9
0.733333333333333,11.799829579481,20.9972537707547,6.81242449888164,-0.0628187207230839,3,14.5050347222222,29.9
0.766666666666667,11.799744687594,21.2228840757196,6.72539695729654,-0.0870275415850994,3,14.4648003472222,29.9
0.8,11.7996429449947,21.4452965011529,6.61935294409222,-0.106044013204316,3,14.425,29.9
0.833333333333333,11.7995223689973,21.6639723919258,6.50120647127792,-0.118146472814303,3,14.3856336805556,29.9
0.866666666666667,11.7993818191037,21.8785087309375,6.37098223925754,-0.130224232020383,3,14.3467013888889,29.9
0.9,11.7992215750067,22.0885603573474,6.23212716268915,-0.138855076568393,3,14.308203125,29.9
0.933333333333333,11.7990429273613,22.2938686547654,6.08638718366305,-0.145739979026091,3,14.2701388888889,29.9
0.966666666666667,11.7988478330707,22.4942037681117,5.93374199142006,-0.152645192242994,3,14.2325086805556,29.9
1,11.798638615186,22.6893645949514,5.77593664416838,-0.157805347251684,3,14.1953125,29.9
1.03333333333333,11.7984177653316,22.8791213709218,5.60950580030608,-0.166430843862302,3,14.1585503472222,29.9
1.06666666666667,11.798187841801,23.063129199758,5.43100614315253,-0.178499657153549,3,14.1222222222222,29.9
1.1,11.7979514784569,23.2408125255233,5.23004092018123,-0.200965222971293,3,14.086328125,29.9
1.13333333333333,11.7977112262235,23.4115668027891,5.01526688740567,-0.214774032775561,3,14.0508680555556,29.9
1.16666666666667,11.7974693214545,23.5750473343047,4.79361795683749,-0.221648930568187,3,14.0158420138889,29.9
1.2,11.7972271079699,23.7311401791655,4.57200551597637,-0.221612440861111,3,13.98125,29.9
1.23333333333333,11.79698379574,23.8798465867147,4.35042983289314,-0.221575683083232,3,13.9470920138889,29.9
1.26666666666667,11.7967388408378,24.0211668843917,4.12881053114555,-0.221619301747589,3,13.9133680555556,29.9
1.3,11.7964920088418,24.1550983846264,3.90710650515349,-0.221704025992066,3,13.9133680555556,29.9
1.33333333333333,11.7962420180374,24.2816390828852,3.68536394521086,-0.221742559942631,3,13.9133680555556,29.9
1.36666666666667,11.7959884539802,24.4007882712832,3.46361584940786,-0.221748095802996,3,13.9133680555556,29.9
1.4,11.7957321732471,24.5125461651359,3.24188574563976,-0.221730103768099,3,13.9133680555556,29.9
1.43333333333333,11.7954750787051,24.6169136348548,3.02019031573553,-0.221695429904231,3,13.9133680555556,29.9
1.46666666666667,11.7952198804647,24.7138920137472,2.79854126880758,-0.221649046927946,3,13.9133680555556,29.9
1.5,11.7949698601328,24.8034829601819,2.5769466879598,-0.22159458084778,3,13.9133680555556,29.9
1.53333333333333,11.7947286433453,24.885688358672,2.35541201133528,-0.22153467662452,3,13.9133680555556,29.9
1.56666666666667,11.7944999046822,24.9605105484,2.13400785053119,-0.221404160804097,3,13.9133680555556,29.9
1.6,11.7942869646301,25.0279712495633,1.9140967767161,-0.219911073815088,3,13.9133680555556,29.9
1.63333333333333,11.7940925349335,25.0881495929002,1.69719079105511,-0.21690598566099,3,13.9133680555556,29.9
1.66666666666667,11.7939186873215,25.141154158765,1.48371870192502,-0.213472089130093,3,13.9133680555556,29.9
1.7,11.7937668826561,25.1871032510176,1.27389217159816,-0.209826530326857,3,13.9133680555556,29.9
1.73333333333333,11.79363802793,25.2261205978651,1.06782881028083,-0.20606336131733,3,13.9133680555556,29.9
1.76666666666667,11.7935325622285,25.2583339905143,0.865708903373864,-0.202119906906964,3,13.9133680555556,29.9
1.8,11.7934505498076,25.2838793226583,0.667744127212939,-0.197964776160925,3,13.9133680555556,29.9
1.83333333333333,11.7933917960681,25.3028943971107,0.473903010618398,-0.193841116594541,3,13.9133680555556,29.9
1.86666666666667,11.7933559482242,25.3155183965772,0.284293920099484,-0.189609090518914,3,13.9133680555556,29.9
1.9,11.7933425851745,25.3218922685482,0.0989264720057586,-0.185367448093726,3,13.9133680555556,29.9
1.93333333333333,11.7933502179699,25.322725468936,0.00266611784320041,-0.0962603541625582,3,13.9133680555556,29.9
1.96666666666667,11.7933708057733,25.3221987464678,0.0160377200658589,0.0133716022226585,5,13.9133680555556,29.9
2,11.7934016723915,25.3216720430784,0.00347975564981249,-0.0125579644160464,5,13.9133680555556,29.9
2.03333333333333,11.7934016723915,25.3216720430784,0.0050649659614918,0.00158521031167931,5,13.9133680555556,29.9
2.06666666666667,11.7934016723915,25.3216720430784,0.00721379763812109,0.00214883167662929,5,13.9133680555556,29.9
2.1,11.7934016723915,25.3216720430784,0.00967979305368877,0.00246599541556767,5,13.9133680555556,29.9
2.13333333333333,11.7934016723915,25.3216720430784,0.0121822885658055,0.00250249551211669,5,13.9133680555556,29.9
2.16666666666667,11.7934016723915,25.3216720430784,0.014441722547255,0.00225943398144953,5,13.9133680555556,29.9
2.2,11.7934016723915,25.3216720430784,0.0162094375626414,0.00176771501538639,5,13.9133680555556,29.9
2.23333333333333,11.7934016723915,25.3216720430784,0.0172903141133856,0.00108087655074418,5,13.9133680555556,29.9
2.26666666666667,11.7934016723915,25.3216720430784,0.0175574207582472,0.00026710664486166,5,13.9133680555556,29.9
2.3,11.7934016723915,25.3216720430784,0.0169586350909691,-0.000598785667278105,5,13.9133680555556,29.9
2.33333333333333,11.7934016723915,25.3216720430784,0.0155158378873072,-0.00144279720366196,5,13.9133680555556,29.9
2.36666666666667,11.7934016723915,25.3216720430784,0.0133177807461084,-0.00219805714119879,5,13.9133680555556,29.9
2.4,11.7934016723915,25.3216720430784,0.0105080632110018,-0.00280971753510653,5,13.9133680555556,29.9
2.43333333333333,11.7934016723915,25.3216720430784,0.0072698299073693,-0.00323823330363253,5,13.9133680555556,29.9
2.46666666666667,11.7934016723915,25.3216720430784,0.00380882431489448,-0.00346100559247482,5,13.9133680555556,29.9
2.5,11.7934016723915,25.3216720430784,0.000336334725148185,-0.00347248958974629,5,13.9133680555556,29.9
2.53333333333333,11.7934016723915,25.3216720430784,0.00294663324172365,0.00261029851657547,5,13.9133680555556,29.9
2.56666666666667,11.7934016723915,25.3216720430784,0.00586289450235909,0.00291626126063544,5,13.9133680555556,29.9
2.6,11.7934016723915,25.3216720430784,0.00826958085170933,0.00240668634935023,5,13.9133680555556,29.9
2.63333333333333,11.7934016723915,25.3216720430784,0.0100651664093681,0.00179558555765882,5,13.9133680555556,29.9
2.66666666666667,11.7934016723915,25.3216720430784,0.0111929018100892,0.00112773540072108,5,13.9133680555556,29.9
2.7,11.7934016723915,25.3216720430784,0.0116408120981563,0.000447910288067031,5,13.9133680555556,29.9
2.73333333333333,11.7934016723915,25.3216720430784,0.0114386401591295,-0.000202171939026779,5,13.9133680555556,29.9
2.76666666666667,11.7934016723915,25.3216720430784,0.0106522867983096,-0.000786353360819857,5,13.9133680555556,29.9
2.8,11.7934016723915,25.3216720430784,0.00937640648364679,-0.00127588031466283,5,13.9133680555556,29.9
2.83333333333333,11.7934016723915,25.3216720430784,0.00772586536796883,-0.00165054111567796,5,13.9133680555556,29.9
2.86666666666667,11.7934016723915,25.3216720430784,0.0058267605724701,-0.00189910479549873,5,13.9133680555556,29.9
2.9,11.7934016723915,25.3216720430784,0.00380764500453821,-0.00201911556793188,5,13.9133680555556,29.9
2.93333333333333,11.7934016723915,25.3216720430784,0.0016928993143156,-0.00211474569022261,5,13.9133680555556,29.9
2.96666666666667,11.7934007534064,25.322162253649,0.0265738793429865,0.0248809800286709,4,13.9133680555556,29.9
3,11.7933974914725,25.323902082205,0.0777885140029297,0.0512146346599432,4,13.9133680555556,29.9
3.03333333333333,11.7933910405983,25.3273383080724,0.128379273007427,0.0505907590044971,4,13.9133680555556,29.9
3.06666666666667,11.7933814225503,25.3324451717502,0.178058240755446,0.0496789677480197,4,13.9133680555556,29.9
3.1,11.7933686398779,25.3391890797294,0.226628927134403,0.0485706863789564,4,13.9133680555556,29.9
3.13333333333333,11.7933526554004,25.3475313853321,0.273990475556509,0.0473615484221064,4,13.9133680555556,29.9
3.16666666666667,11.79333337607,25.3574326226428,0.320183012269542,0.0461925367130331,4,13.9133680555556,29.9
3.2,11.7933106158156,25.3688552120148,0.365265014391806,0.0450820021222634,4,13.9133680555556,29.9
3.23333333333333,11.7932840534001,25.3817632703158,0.409284673843165,0.0440196594513591,4,13.9133680555556,29.9
3.26666666666667,11.7932532387972,25.3961222789409,0.452282488601102,0.0429978147579368,4,13.9133680555556,29.9
3.3,11.7932176278774,25.4118987792568,0.494285724510721,0.0420032359096195,4,13.9133680555556,29.9
3.33333333333333,11.7931766025153,25.4290596200757,0.535294587683324,0.0410088631726032,4,13.9133680555556,29.9
3.36666666666667,11.793129488733,25.4475715219965,0.575310279742417,0.0400156920590927,4,13.9133680555556,29.9
3.4,11.793075578451,25.4674012964057,0.614340049855903,0.0390297701134857,4,13.9133680555556,29.9
3.43333333333333,11.7930141552148,25.4885160490444,0.65239512468598,0.0380550748300774,4,13.9133680555556,29.9
3.46666666666667,11.7929445227701,25.5108833267855,0.689489944096462,0.0370948194104815,4,13.9133680555556,29.9
3.5,11.7928660345156,25.5344714731469,0.725661899311854,0.0361719552153924,4,13.9133680555556,29.9
3.53333333333333,11.7927781211533,25.5592507034711,0.760974921050393,0.0353130217385382,4,13.9133680555556,29.9
3.56666666666667,11.792680317864,25.585193276967,0.795482538068802,0.0345076170184099,4,13.9133680555556,29.9
3.6,11.7925722887109,25.6122731103885,0.829228252443272,0.03374571437447,4,13.9133680555556,29.9
3.63333333333333,11.792453845558,25.6404654775937,0.862248321031948,0.0330200685886752,4,13.9133680555556,29.9
3.66666666666667,11.792324956672,25.6697485031714,0.894767269167952,0.0325189481360042,4,13.9133680555556,29.9
3.7,11.7921857143192,25.7001202100661,0.927810340153192,0.0330430709852396,4,13.9133680555556,29.9
3.73333333333333,11.7920362671197,25.7316260003173,0.963130758195196,0.0353204180420044,4,13.9133680555556,29.9
3.76666666666667,11.7918767637399,25.7643729083033,1.00255548638609,0.0394247281908943,4,13.9133680555556,29.9
3.8,11.7917073234107,25.7985243357398,1.04762223789884,0.0450667515127547,4,13.9133680555556,29.9
3.83333333333333,11.7915280068256,25.8342891884602,1.0995317720591,0.0519095341602538,4,13.9133680555556,29.9
3.86666666666667,11.7913387755923,25.8719117084092,1.15920897212786,0.0596772000687638,4,13.9133680555556,29.9
3.9,11.7911394425103,25.9116616817999,1.22723708116083,0.0680281090329626,4,13.9133680555556,29.9
3.93333333333333,11.7909296232569,25.9538215688017,1.30381494863692,0.0765778674760977,4,13.9133680555556,29.9
3.96666666666667,11.7907086805645,25.9986758747248,1.38886907290363,0.0850541242667044,4,13.9133680555556,29.9
4,11.7904756686984,26.0465016399762,1.48201491554363,0.0931458426399996,4,13.9133680555556,29.9
4.03333333333333,11.7902292919131,26.0975575810196,1.58255414629407,0.10053923075044,4,13.9133680555556,29.9
4.06666666666667,11.7899678745857,26.1520764070395,1.6896527368791,0.107098590585038,4,13.9133680555556,29.9
4.1,11.7896893468644,26.2102622927494,1.80244125210811,0.112788515229008,4,13.9133680555556,29.9
4.13333333333333,11.7893912613066,26.2722905149478,1.92005848456486,0.117617232456751,4,13.9133680555556,29.9
4.16666666666667,11.7890708520394,26.3383068406883,2.0415582353519,0.121499750787039,4,13.9133680555556,29.9
4.2,11.7887251474522,26.408423125031,2.16589721972387,0.124338984371969,4,13.9133680555556,29.9
4.23333333333333,11.7883511043868,26.4827183092782,2.29215326111809,0.126256041394217,4,13.9133680555556,29.9
4.26666666666667,11.7879457563621,26.5612425497652,2.41951765139645,0.127364390278356,4,13.9133680555556,29.9
4.3,11.7875063676962,26.644020705311,2.54728097337381,0.127763321977363,4,13.9133680555556,29.9
4.33333333333333,11.7870305994381,26.7310560588443,2.67488269882178,0.127601725447974,4,13.9133680555556,29.9
4.36666666666667,11.7865166934216,26.8223381128535,2.80206621433348,0.127183515511702,4,13.9133680555556,29.9
4.4,11.7859634701116,26.9178521843562,2.92882286921278,0.126756654879296,4,13.9133680555556,29.9
4.43333333333333,11.7853701916733,27.0175861672199,3.05529482492109,0.126471955708314,4,13.9133680555556,29.9
4.46666666666667,11.7847363874595,27.1215332554654,3.18163645754075,0.126341632619654,4,13.9133680555556,29.9
4.5,11.7840616776962,27.2296905524404,3.30791727153191,0.126280813991166,4,13.9133680555556,29.9
4.53333333333333,11.783345621135,27.3420551013999,3.4340459042816,0.126128632749685,4,13.9133680555556,29.9
4.56666666666667,11.7825876113469,27.458617228672,3.55972663506051,0.125680730778915,4,13.9133680555556,29.9
4.6,11.7817868147122,27.5793561681743,3.68460735208945,0.124880717028936,4,13.9133680555556,29.9
4.63333333333333,11.7809421446925,27.7042393968228,3.80834348452349,0.123736132434045,4,13.9133680555556,29.9
4.66666666666667,11.7800522723482,27.8332237144777,3.93064393911056,0.122300454587067,4,13.9133680555556,29.9
4.7,11.7791156633017,27.9662573645644,4.05128519698662,0.120641257876061,4,13.9133680555556,29.9
4.73333333333333,11.7781306352077,28.103281490151,4.17003544496844,0.118750247981813,4,13.9133680555556,29.9
4.76666666666667,11.7770954429695,28.2442272476591,4.28654479515938,0.116509350190939,4,13.9133680555556,29.9
4.8,11.7760083494474,28.3890153981662,4.40056571485078,0.114020919691399,4,13.9133680555556,29.9
4.83333333333333,11.7748676611383,28.5375607003817,4.51198193536341,0.111416220512634,4,13.9133680555556,29.9
4.86666666666667,11.7736717495025,28.6897760626518,4.62079732298877,0.108815387625359,4,13.9133680555556,29.9
4.9,11.7724190584918,28.8455761656004,4.72710583618633,0.106308513197558,4,13.9133680555556,29.9
4.93333333333333,11.771108105797,29.00487949859,4.83103313848163,0.1039273022953,4,13.9133680555556,29.9
4.96666666666667,11.7697374815503,29.1676087441663,4.93270080780969,0.101667669328062,4,13.9133680555556,29.9
5,11.7683064327415,29.3336892899737,5.03210834774031,0.0994075399306178,4,13.9133680555556,29.9
5.03333333333333,11.7668163165541,29.5030436994858,5.12917607627207,0.0970677285317638,4,13.9133680555556,29.9
5.06666666666667,11.7652682355647,29.6755967311876,5.22406529811264,0.0948892218405684,4,13.9133680555556,29.9
5.1,11.7636623990474,29.8512770267061,5.31685058189045,0.0927852837778103,4,13.9133680555556,29.9
5.13333333333333,11.7619982678961,30.0300161873648,5.40763826170014,0.0907876798096945,4,13.9133680555556,29.9
5.16666666666667,11.760274741142,30.2117492116884,5.49653150752446,0.0888932458243126,4,13.9133680555556,29.9
5.2,11.758490332407,30.3964163889125,5.58376758245186,0.0872360749274055,4,13.9133680555556,29.9
5.23333333333333,11.7566439839208,30.5839676507001,5.66964288758075,0.0858753051288854,4,13.9133680555556,29.9
5.26666666666667,11.754736843861,30.7743605454153,5.75431400081606,0.0846711132353111,4,13.9133680555556,29.9
5.3,11.7527702686539,30.9675570199379,5.83789794202131,0.083583941205255,4,13.9133680555556,29.9
5.33333333333333,11.7507475383868,31.1635214717363,5.92041815479677,0.0825202127754547,4,13.9133680555556,29.9
5.36666666666667,11.7486738121058,31.3622184132639,6.00186154803148,0.0814433932347098,4,13.9133680555556,29.9
5.4,11.7465552618588,31.5636107036314,6.08214560459158,0.0802840565601066,4,13.9133680555556,29.9
5.43333333333333,11.7443993011129,31.7676588410413,6.1612239526276,0.0790783480360204,4,13.9133680555556,29.9
5.46666666666667,11.7422165608153,31.9743226144884,6.23909309020242,0.0778691375748117,4,13.9133680555556,29.9
5.5,11.7400201594488,32.1835620042945,6.31576400120963,0.0766709110072155,4,13.9133680555556,29.9
5.53333333333333,11.7378230013956,32.3953376901964,6.39127265951476,0.0755086583051252,4,13.9133680555556,29.9
5.56666666666667,11.7356327399368,32.609612199236,6.46569760613863,0.0744249466238758,4,13.9133680555556,29.9
5.6,11.7334539373605,32.826351253635,6.53915163781049,0.0734540316718588,4,13.9133680555556,29.9
5.63333333333333,11.7312869630028,33.0455245767986,6.61175375321667,0.072602115406176,4,13.9133680555556,29.9
5.66666666666667,11.729129074283,33.2671037492155,6.68346471236326,0.0717109591465972,4,13.9133680555556,29.9
5.7,11.7269760266577,33.4910565349903,6.75414354528354,0.0706788329202768,4,13.9133680555556,29.9
5.73333333333333,11.7248231531483,33.717347265396,6.82373370536639,0.0695901600828499,4,13.9133680555556,29.9
5.76666666666667,11.7226660000994,33.9459399472582,6.89226852964008,0.0685348242736907,4,13.9133680555556,29.9
5.8,11.7205006572825,34.1768007313075,6.9598295891595,0.0675610595194209,4,13.9133680555556,29.9
5.83333333333333,11.718323914446,34.4098975519809,7.02642305971569,0.0665934705561924,4,13.9133680555556,29.9
5.86666666666667,11.7161323204391,34.6453029564838,7.101055852385,0.0746327926693082,4,13.9133680555556,29.9
5.9,11.7139202439926,34.8833971471133,7.18628555401908,0.0852297016340744,4,13.9133680555556,29.9
5.93333333333333,11.7116842601863,35.1244056979495,7.27500583583898,0.0887202818199011,4,13.9133680555556,29.9
5.96666666666667,11.7094233745439,35.368368033203,7.36300699948795,0.0880011636489755,4,13.9133680555556,29.9
6,11.7071381661818,35.6152170376716,7.4479314680026,0.0849244685146475,4,13.9133680555556,29.9
6.03333333333333,11.7048301927039,35.8648290612551,7.52869755616285,0.080766088160253,4,13.9133680555556,29.9
6.06666666666667,11.7025015190075,36.1170591794265,7.60501488986713,0.0763173337042744,4,13.9133680555556,29.9
6.1,11.7001543925335,36.3717605089042,7.67702169649518,0.0720068066280559,4,13.9133680555556,29.9
6.13333333333333,11.6977910096921,36.6287950299411,7.74507916925644,0.0680574727612555,4,13.9133680555556,29.9
6.16666666666667,11.6954133648729,36.8880383314878,7.80962497682537,0.0645458075689307,4,13.9133680555556,29.9
6.2,11.6930231702113,37.1493805518125,7.87107552035201,0.0614505435266341,4,13.9133680555556,29.9
6.23333333333333,11.6906218477232,37.4127236394254,7.92972442169598,0.058648901343977,4,13.9133680555556,29.9
