Time,x_ego,y_ego,velocity,acceleration,action,x_ped,y_ped
0,11.8,15.9,5,0,1,15.5,29.9
0.0333333333333333,11.8000006488626,16.0666076888417,4.99642261469764,-0.00357738530236151,1,15.3694444444444,29.9
0.0666666666666667,11.8000048115017,16.233092653108,4.99264757150657,-0.00377504319106947,1,15.2444444444444,29.9
0.1,11.8000149633178,16.3994492968633,4.98873131485878,-0.0039162566477895,1,15.125,29.9
0.133333333333333,11.800032530516,16.5656736242333,4.98471429915934,-0.00401701569943747,1,15.0111111111111,29.9
0.166666666666667,11.8000580714927,16.7317627861409,4.98062551684281,-0.0040887823165292,1,14.9027777777778,29.9
0.2,11.8000914994651,16.8977147554643,4.97648574561644,-0.0041397712263711,1,14.8,29.9
0.233333333333333,11.8001322997913,17.0635280942387,4.97230987652223,-0.00417586909421264,1,14.7027777777778,29.9
0.266666666666667,11.8001797141616,17.2292017868136,4.96810858238913,-0.00420129413310288,1,14.6111111111111,29.9
0.3,11.8002328809621,17.3947351202675,4.96388951324349,-0.00421906914563586,1,14.525,29.9
0.333333333333333,11.8002903199024,17.5601275987705,4.95965814133205,-0.00423137191143752,1,14.4444444444444,29.9
0.366666666666667,11.8003485130092,17.725378882432,4.95541839464508,-0.00423974668697014,1,14.3694444444444,29.9
0.4,11.8004043792389,17.8904887429886,4.95117310360871,-0.00424529103637106,1,14.3,29.9
0.433333333333333,11.80045585437,18.0554570319953,4.94692429719933,-0.0042488064093833,1,14.2361111111111,29.9
0.466666666666667,11.8005018621103,18.2202836580487,4.94267342715955,-0.0042508700397752,1,14.1777777777778,29.9
0.5,11.8005415331174,18.3849685706382,4.93842152933059,-0.00425189782896762,1,14.125,29.9
0.533333333333333,11.8005725101854,18.5495117488387,4.93416935148062,-0.00425217784996512,1,14.0777777777778,29.9
0.566666666666667,11.8005932019097,18.7139128291677,4.92989563022685,-0.00427372125377445,1,14.0361111111111,29.9
0.6,11.8006032183728,18.8780562899168,4.91871230240433,-0.0111833278225193,1,14,29.9
0.633333333333333,11.8006030573864,19.0416249974792,4.89541077719445,-0.0233015252098729,3,13.9694444444444,29.9
0.666666666666667,11.8005937911824,19.2040134074351,4.84789516624683,-0.0475156109476194,3,13.9444444444444,29.9
0.7,11.8005767916201,19.3642128175826,4.76407200525003,-0.0838231609968041,3,13.925,29.9
0.733333333333333,11.8005535701209,19.5210992082785,4.64911554205822,-0.114956463191815,3,13.9111111111111,29.9
0.766666666666667,11.8005256667194,19.6738082427096,4.51343253691854,-0.135683005139677,3,13.9027777777778,29.9
0.8,11.8004945371629,19.8218220938035,4.36740719909996,-0.14602533781858,3,13.9,29.9
0.833333333333333,11.8004614652249,19.9649112690061,4.21795604903962,-0.149451150060343,3,13.9,29.9
0.866666666666667,11.8004275077446,20.1030193810021,4.06854948249613,-0.149406566543488,3,13.9,29.9
0.9,11.8003934714465,20.2361192204681,3.91746799797827,-0.151081484517857,3,13.9,29.9
0.933333333333333,11.8003599151345,20.364183658109,3.76643532375133,-0.151032674226945,3,13.9,29.9
0.966666666666667,11.8003271688295,20.4871852570472,3.61370806626456,-0.152727257486765,3,13.9,29.9
1,11.8002953688629,20.6050101495941,3.45584217300005,-0.157865893264515,3,13.9,29.9
1.03333333333333,11.8002645123007,20.7173428634754,3.28418405997039,-0.171658113029653,3,13.9,29.9
1.06666666666667,11.8002344932808,20.8239544622278,3.11257807291043,-0.171605987059962,3,13.9,29.9
1.1,11.8002051375503,20.9249045440058,2.94449120073794,-0.168086872172491,3,13.9,29.9
1.13333333333333,11.8001762498835,21.0204256712341,2.78683416519096,-0.157657035546976,3,13.9,29.9
1.16666666666667,11.8001476530437,21.110865563967,2.6396064939555,-0.147227671235465,3,13.9,29.9
1.2,11.8001192093339,21.1966874305652,2.50973954222656,-0.129866951728935,3,13.9,29.9
1.23333333333333,11.8000908301486,21.2784695683292,2.39720979867024,-0.112529743556327,3,13.9,29.9
1.26666666666667,11.8000622303743,21.3566749818827,2.29512643903485,-0.102083359635385,3,13.9,29.9
1.3,11.8000322535278,21.4315359718839,2.19656450583745,-0.0985619331974075,3,13.9,29.9
1.33333333333333,11.7999999284455,21.5031195740429,2.09866870688778,-0.0978957989496694,3,13.9,29.9
1.36666666666667,11.7999647441716,21.5714952848095,2.00423013681859,-0.0944385700691819,3,13.9,29.9
1.4,11.7999265962143,21.6367575242046,1.9119134631703,-0.0923166736482917,3,13.9,29.9
1.43333333333333,11.7998857244101,21.6989493297885,1.82002811641645,-0.091885346753857,3,13.9,29.9
1.46666666666667,11.79984261959,21.7581134756631,1.73026530276803,-0.0897628136484201,3,13.9,29.9
1.5,11.7997979354212,21.8143188739839,1.64250623099634,-0.0877590717716863,3,13.9,29.9
1.53333333333333,11.7997524197792,21.8676309171837,1.55666847915509,-0.0858377518412441,3,13.9,29.9
1.56666666666667,11.7997068516456,21.9181129244401,1.47269174334606,-0.0839767358090306,3,13.9,29.9
1.6,11.7996619996226,21.9657970939311,1.38877865309072,-0.083913090255344,3,13.9,29.9
1.63333333333333,11.7996185852963,22.010685061404,1.30489548098282,-0.0838831721079039,3,13.9,29.9
1.66666666666667,11.799577239344,22.0528060360854,1.22272293022672,-0.0821725507561009,3,13.9,29.9
1.7,11.7995384835195,22.0922162301943,1.14221469296194,-0.0805082372647721,3,13.9,29.9
1.73333333333333,11.7995027199696,22.1289993705547,1.06507719747553,-0.0771374954864117,3,13.9,29.9
1.76666666666667,11.7994702489641,22.1632109911774,0.987919075815268,-0.0771581216602639,3,13.9,29.9
1.8,11.7994412616397,22.194908855969,0.914253149556146,-0.0736659262591216,3,13.9,29.9
1.83333333333333,11.7994158383261,22.2241810748519,0.842377737169,-0.071875412387146,3,13.8991319444444,29.9
1.86666666666667,11.7993939939886,22.2510572106025,0.770479307152943,-0.0718984300160572,3,13.8965277777778,29.9
1.9,11.7993756717954,22.2755633076773,0.700177289471765,-0.0703020176811783,3,13.8921875,29.9
1.93333333333333,11.7993607354781,22.2977799151598,0.633119153806919,-0.0670581356648458,3,13.8861111111111,29.9
1.96666666666667,11.799349017879,22.3177575155722,0.565858133851996,-0.067261019954923,3,13.8782986111111,29.9
2,11.7993403347156,22.3355186824646,0.500146629541716,-0.0657115043102798,3,13.86875,29.9
2.03333333333333,11.7993344633674,22.3511441483735,0.437718048306292,-0.0624285812354239,3,13.8574652777778,29.9
2.06666666666667,11.7993311890911,22.3646857965215,0.375102385756887,-0.0626156625494054,3,13.8444444444444,29.9
2.1,11.7993303034079,22.3761939024832,0.315681577681311,-0.0594208080755759,3,13.8296875,29.9
2.13333333333333,11.7993316117271,22.3857165725481,0.255949013551682,-0.0597325641296291,3,13.8131944444444,29.9
2.16666666666667,11.7993349505374,22.3932712873346,0.197581634982108,-0.0583673785695736,3,13.7949652777778,29.9
2.2,11.7993401680978,22.3989039541291,0.14063105565021,-0.056950579331898,3,13.775,29.9
2.23333333333333,11.7993471260243,22.402692281576,0.0869325886778042,-0.0536984669724061,3,13.7532986111111,29.9
2.26666666666667,11.7993557118871,22.4047167599283,0.0348529227638507,-0.0520796659139535,3,13.7298611111111,29.9
2.3,11.7993657911177,22.4051880964168,0.0077633996956863,-0.0270895230681644,3,13.7046875,29.9
2.33333333333333,11.7993770815401,22.4047630205267,0.0197016979185885,0.0119382982229022,5,13.6777777777778,29.9
2.36666666666667,11.7993892774645,22.4041163895287,0.00414675937578037,-0.0155549385428081,5,13.6491319444444,29.9
2.4,11.7993892774645,22.4041163895287,0.00484363121659306,0.00069687184081269,5,13.61875,29.9
2.43333333333333,11.7993892774645,22.4041163895287,0.005486283123081,0.00064265190648794,5,13.5866319444444,29.9
2.46666666666667,11.7993892774645,22.4041163895287,0.00603518792916057,0.000548904806079562,5,13.5527777777778,29.9
2.5,11.7993892774645,22.4041163895287,0.00644614259129924,0.000410954662138678,5,13.5171875,29.9
2.53333333333333,11.7993892774645,22.4041163895287,0.00667766510477274,0.000231522513473498,5,13.4798611111111,29.9
2.56666666666667,11.7993892774645,22.4041163895287,0.00669710187315281,1.94367683800725e-05,5,13.4407986111111,29.9
2.6,11.7993892774645,22.4041163895287,0.00648505606199007,-0.000212045811162739,5,13.4,29.9
2.63333333333333,11.7993892774645,22.4041163895287,0.00613614702845229,-0.000348909033537782,5,13.3574652777778,29.9
2.66666666666667,11.7993892190692,22.4042739164137,0.00721799297603144,0.00108184594757915,5,13.3131944444444,29.9
2.7,11.7993891360154,22.4044980476136,0.0103465996694385,0.00312860669340706,5,13.2671875,29.9
2.73333333333333,11.799388964304,22.4049610803389,0.0192356085978553,0.00888900892841677,5,13.2194444444444,29.9
2.76666666666667,11.7993886510822,22.4058047073238,0.0320163741937883,0.0127807655959331,5,13.1699652777778,29.9
2.8,11.7993881332878,22.4071969054833,0.0517042059175484,0.01968783172376,4,13.11875,29.9
2.83333333333333,11.7993872949045,22.4094459046396,0.0832318692144353,0.0315276632968869,4,13.0657986111111,29.9
2.86666666666667,11.7993860090539,22.4128833033551,0.122920157402054,0.0396882881876192,4,13.0111111111111,29.9
2.9,11.7993841897415,22.4177188235356,0.167073364151725,0.0441532067496701,4,12.9546875,29.9
2.93333333333333,11.7993817786671,22.4240690177875,0.21377098126991,0.0466976171181854,4,12.8965277777778,29.9
2.96666666666667,11.7993787314719,22.4319872359521,0.261140153652779,0.0473691723828695,4,12.8366319444444,29.9
3,11.7993750144505,22.4414661650119,0.307421123828752,0.0462809701759727,4,12.775,29.9
3.03333333333333,11.7993705909696,22.452470195853,0.352651467908946,0.0452303440801935,4,12.7116319444444,29.9
3.06666666666667,11.7993654098401,22.464964854656,0.396862523467425,0.0442110555584791,4,12.6465277777778,29.9
3.1,11.799359405443,22.4789166198057,0.440080924659796,0.0432184011923713,4,12.5796875,29.9
3.13333333333333,11.7993524986548,22.4942927776356,0.482327430815454,0.0422465061556584,4,12.5111111111111,29.9
3.16666666666667,11.7993445987432,22.5110609206108,0.523597488694653,0.0412700578791981,4,12.4407986111111,29.9
3.2,11.7993356061269,22.5291883217139,0.563882481601342,0.0402849929066892,4,12.36875,29.9
3.23333333333333,11.799325415584,22.5486421318202,0.603183007259284,0.0393005256579425,4,12.2949652777778,29.9
3.26666666666667,11.7993139200643,22.5693896414933,0.641506300342144,0.0383232930828598,4,12.2194444444444,29.9
3.3,11.7993010149814,22.5913984673943,0.678864328861889,0.0373580285197453,4,12.1421875,29.9
3.33333333333333,11.7992866027207,22.6146367873433,0.715283907871676,0.0364195790097861,4,12.0631944444444,29.9
3.36666666666667,11.7992705968492,22.6390743109657,0.750827186474199,0.035543278602523,4,11.9824652777778,29.9
3.4,11.7992529261887,22.6646828312318,0.785552260984078,0.0347250745098794,4,11.9,29.9
3.43333333333333,11.7992335386769,22.6914358811844,0.819506081528962,0.0339538205448843,4,11.8157986111111,29.9
3.46666666666667,11.7992124044364,22.7193084127251,0.852727275646384,0.0332211941174214,4,11.7298611111111,29.9
3.5,11.7991895178299,22.7482765566956,0.885248230335043,0.032520954688659,4,11.6421875,29.9
3.53333333333333,11.7991648983568,22.7783174359461,0.917095124708489,0.0318468943734459,4,11.5527777777778,29.9
3.56666666666667,11.7991385904746,22.8094085976697,0.948260019185179,0.0311648944766908,4,11.4616319444444,29.9
3.6,11.7991106624691,22.8415267371496,0.978709958648447,0.0304499394632678,4,11.36875,29.9
3.63333333333333,11.7990812036013,22.8746476864914,1.00842707033619,0.029717111687741,4,11.2741319444444,29.9
3.66666666666667,11.7990503199372,22.9087468829481,1.03740434639002,0.0289772760538303,4,11.1777777777778,29.9
3.7,11.7990181292996,22.9437996634261,1.06564288116227,0.0282385347722491,4,11.0796875,29.9
3.73333333333333,11.7989847555145,22.9797815292885,1.09315110577017,0.0275082246078977,4,10.9798611111111,29.9
3.76666666666667,11.7989503222517,23.0166683518784,1.11994251135418,0.0267914055840193,4,10.8782986111111,29.9
3.8,11.7989149467893,23.0544365164623,1.14603532699448,0.0260928156402935,4,10.775,29.9
3.83333333333333,11.7988787338965,23.0930633140082,1.17146819218087,0.025432865186394,4,10.6699652777778,29.9
3.86666666666667,11.7988417702052,23.132527509766,1.19628574444024,0.0248175522593712,4,10.5631944444444,29.9
3.9,11.7988041198145,23.1728092334314,1.22052539161988,0.0242396471796325,4,10.4546875,29.9
3.93333333333333,11.7987658211519,23.2138897621654,1.24421882286592,0.0236934312460482,4,10.3444444444444,29.9
3.96666666666667,11.7987268852443,23.255751353046,1.26739331633003,0.0231744934641105,4,10.2324652777778,29.9
4,11.7986872955486,23.2983771131959,1.29007271539968,0.022679399069647,4,10.11875,29.9
4.03333333333333,11.798647009396,23.3417508980476,1.31227815917168,0.0222054437719996,4,10.0032986111111,29.9
4.06666666666667,11.7986059609906,23.3858572306927,1.33402863056447,0.0217504713927867,4,9.88611111111111,29.9
4.1,11.7985640657945,23.4306812370996,1.35534136907755,0.021312738513084,4,9.7671875,29.9
4.13333333333333,11.798521226041,23.4762085600321,1.37622841039971,0.020887041322156,4,9.64652777777778,29.9
4.16666666666667,11.7984773371466,23.5224250197411,1.3966894082995,0.0204609978997952,4,9.52413194444444,29.9
4.2,11.7984322943641,23.5693164226309,1.41672561205476,0.0200362037552564,4,9.4,29.9
4.23333333333333,11.7983859991065,23.6168686854108,1.43634214889954,0.0196165368447778,4,9.27413194444444,29.9
4.26666666666667,11.798338364661,23.6650679420889,1.45554675483935,0.0192046059398174,4,9.14652777777778,29.9
4.3,11.7982893208819,23.7139006148796,1.47434885934867,0.0188021045093165,4,9.0171875,29.9
4.33333333333333,11.7982388175176,23.7633534591491,1.4927589292207,0.0184100698720273,4,8.88611111111111,29.9
4.36666666666667,11.7981868259487,23.8134135898029,1.51078800173346,0.018029072512761,4,8.75329861111111,29.9
4.4,11.7981333392493,23.8640684945173,1.52844735571531,0.0176593539818488,2,8.61875,29.9
4.43333333333333,11.7980783706335,23.9153060377483,1.54574828271858,0.017300927003276,2,8.48246527777778,29.9
4.46666666666667,11.7980219504841,23.9671144583696,1.56270193058444,0.0169536478658581,2,8.34444444444444,29.9
4.5,11.7979641222783,24.0194823630013,1.57931919912328,0.0166172685388368,2,8.2046875,29.9
4.53333333333333,11.797904937822,24.0723986951294,1.59560801586639,0.0162888167431086,2,8.06319444444444,29.9
4.56666666666667,11.797844452381,24.1258524709633,1.61156503532647,0.0159570194600831,2,7.91996527777778,29.9
4.6,11.7977827199476,24.179832575364,1.62718777674293,0.0156227414164594,2,7.775,29.9
4.63333333333333,11.7977197888308,24.234327886,1.64247803691045,0.0152902601675211,2,7.62829861111111,29.9
4.66666666666667,11.7976556981025,24.289327392322,1.65744053794385,0.0149625010333982,2,7.47986111111111,29.9
4.7,11.7975904751224,24.3448202758993,1.67208194990985,0.0146414119659966,2,7.3296875,29.9
4.73333333333333,11.7975241342203,24.4007959629844,1.68641018732917,0.0143282374193248,2,7.17777777777778,29.9
4.76666666666667,11.7974566765092,24.4572441571451,1.7004339061474,0.0140237188182333,2,7.02413194444444,29.9
4.8,11.7973880907081,24.5141548647317,1.71416363683695,0.0137297306895505,2,6.86875,29.9
4.83333333333333,11.7973183543386,24.5715189584015,1.72765475265725,0.0134911158202984,2,6.71163194444444,29.9
4.86666666666667,11.7972474338539,24.6293306809198,1.7410499752671,0.0133952226098495,2,6.55277777777778,29.9
4.9,11.7971751275893,24.6875898128266,1.75452977619343,0.0134798009263273,2,6.3921875,29.9
4.93333333333333,11.7971006317204,24.7463020356926,1.7682582128527,0.0137284366592654,2,6.22986111111111,29.9
4.96666666666667,11.7970231052327,24.805477324061,1.78231677016803,0.0140585573153349,2,6.06579861111111,29.9
5,11.7969418834803,24.8651260579542,1.79663925216804,0.014322482000011,2,5.9,29.9
5.03333333333333,11.796856510922,24.9252533735045,1.81097433908641,0.01433508691837,2,5.9,29.9
5.06666666666667,11.7967667561157,24.9858530610323,1.82490300946716,0.0139286703807471,2,5.9,29.9
5.1,11.7966726079479,25.0469043143238,1.83803557357003,0.0131325641028763,2,5.9,29.9
5.13333333333333,11.7965742473756,25.1083799454592,1.85038817895925,0.0123526053892167,2,5.9,29.9
5.16666666666667,11.7964720062823,25.1702561138574,1.8620885366763,0.0117003577170505,2,5.9,29.9
5.2,11.7963663268046,25.2325130846179,1.87325480199505,0.0111662653187501,2,5.9,29.9
5.23333333333333,11.796257717834,25.2951346878798,1.8839789080189,0.0107241060238457,2,5.9,29.9
5.26666666666667,11.7961467114567,25.3581072089825,1.89431767479572,0.0103387667768218,2,5.9,29.9
5.3,11.796033821518,25.4214185080423,1.90431175161137,0.00999407681564679,2,5.9,29.9
5.33333333333333,11.7959195064907,25.485057648247,1.91399296619956,0.00968121458819815,2,5.9,29.9
5.36666666666667,11.7958041390712,25.5490146421708,1.92338680060828,0.00939383440871233,2,5.9,29.9
5.4,11.7956879837478,25.61328059901,1.93254986500774,0.00916306439946313,2,5.9,29.9
5.43333333333333,11.7955711810982,25.677850205695,1.9416349389086,0.00908507390086255,2,5.9,29.9
5.46666666666667,11.7954537421579,25.7427239119062,1.95082782200922,0.00919288310061606,2,5.9,29.9
5.5,11.7953355543242,25.8079084563611,1.96031488550931,0.00948706350009276,2,5.9,29.9
5.53333333333333,11.7952163973551,25.8734163524342,1.97025062117425,0.00993573566493722,2,5.9,29.9
5.56666666666667,11.7950959673858,25.9392648486572,1.98078139779874,0.0105307766244924,2,5.9,29.9
5.6,11.7949739035649,26.0054769069366,1.99209264725822,0.0113112494594749,2,5.9,29.9
5.63333333333333,11.7948498180167,26.0720813923038,2.00435902041944,0.0122663731612267,2,5.9,29.9
5.66666666666667,11.7947233248474,26.1391134719912,2.01778365441427,0.0134246339948292,2,5.9,29.9
5.7,11.7945940652019,26.2066152560219,2.032576096812,0.0147924423977295,2,5.9,29.9
5.73333333333333,11.7944617269175,26.2746358444178,2.04895151153711,0.0163754147251107,2,5.9,29.9
5.76666666666667,11.794326054333,26.3432326984736,2.06722435928338,0.0182728477462706,4,5.9,29.9
5.8,11.7941868409174,26.4124787092763,2.08805397728482,0.0208296180014385,4,5.9,29.9
5.83333333333333,11.7940439005781,26.482477222262,2.11260038063915,0.024546403354333,4,5.9,29.9
5.86666666666667,11.7938970319693,26.5533748936047,2.14222381425123,0.0296234336120809,4,5.9,29.9
5.9,11.7937459927842,26.6253620239659,2.17815305638855,0.0359292421373154,4,5.9,29.9
5.93333333333333,11.7935904813929,26.6986648781552,2.2212839501092,0.0431308937206549,4,5.9,29.9
5.96666666666667,11.7934301243475,26.7735337734282,2.27219187143163,0.0509079213224228,4,5.9,29.9
6,11.7932644631398,26.8502337464725,2.33117036209432,0.0589784906626907,4,5.9,29.9
6.03333333333333,11.7930929491462,26.9290338493069,2.3981576821677,0.0669873200733773,4,5.9,29.9
6.06666666666667,11.7929149495023,27.010194942894,2.47274260518217,0.0745849230144793,4,5.9,29.9
6.1,11.7927297583827,27.0939605136519,2.55431425214593,0.0815716469637535,4,5.9,29.9
6.13333333333333,11.7925366185447,27.1805514683398,2.64213760579535,0.0878233536494255,4,5.9,29.9
6.16666666666667,11.7923347569479,27.2701628730368,2.73540546507199,0.0932678592766334,4,5.9,29.9
6.2,11.7921234117759,27.3629623460742,2.83328575552546,0.0978802904534688,4,5.9,29.9
6.23333333333333,11.791901852777,27.4590900281041,2.93496976916423,0.101684013638775,4,5.9,29.9
6.26666666666667,11.7916693954027,27.5586600667462,3.03971068838191,0.104740919217682,4,5.9,29.9
6.3,11.7914254088633,27.6617629193601,3.14683306316445,0.10712237478254,4,5.9,29.9
6.33333333333333,11.7911693202647,27.7684672186395,3.25568709771754,0.108854034553082,4,5.9,29.9
6.36666666666667,11.7909006179634,27.8788199037063,3.36564009094836,0.109952993230825,4,5.9,29.9
6.4,11.7906188478147,27.9928485794127,3.47616784912433,0.110527758175967,4,5.9,29.9
6.43333333333333,11.7903236048823,28.110565060782,3.58684432580096,0.110676476676631,4,5.9,29.9
6.46666666666667,11.7900145244595,28.2319683619186,3.69732523258427,0.110480906783311,4,5.9,29.9
6.5,11.78969127285,28.3570471863667,3.80733436119043,0.110009128606161,4,5.9,29.9
6.53333333333333,11.7893535382264,28.4857819953691,3.91665147760013,0.109317116409697,4,5.9,29.9
6.56666666666667,11.7890010228677,28.6181462621888,4.02505828385972,0.108406806259596,4,5.9,29.9
6.6,11.7886334412491,28.7541051295867,4.13229050135824,0.107232217498518,4,5.9,29.9
