Time,x_ego,y_ego,velocity,acceleration,action,x_ped,y_ped
0,11.8,15.9,5,0,1,15.5,29.9
0.0333333333333333,11.7999987949697,16.0666076888414,4.99642261544275,-0.00357738455724732,1,15.4972222222222,29.9
0.0666666666666667,11.7999910643553,16.2330926530923,4.99264758049872,-0.00377503494402998,1,15.4888888888889,29.9
0.1,11.7999722109856,16.3994492967146,4.98873134825762,-0.00391623224109949,1,15.475,29.9
0.133333333333333,11.7999395861937,16.5656736235462,4.98471437477954,-0.00401697347807861,1,15.4555555555556,29.9
0.166666666666667,11.7998921529576,16.731762784006,4.98062564651096,-0.00408872826858353,1,15.4305555555556,29.9
0.2,11.7998300724449,16.8977147503151,4.97648593154139,-0.004139714969571,1,15.4,29.9
0.233333333333333,11.7997543004184,17.0635280838177,4.9723101120072,-0.00417581953418811,1,15.3666666666667,29.9
0.266666666666667,11.7996662451667,17.2292017682607,4.96810885504278,-0.00420125696442586,1,15.3333333333333,29.9
0.3,11.7995675068291,17.3947350902947,4.96388980864119,-0.00421904640158832,1,15.3,29.9
0.333333333333333,11.7994596946918,17.5601275537825,4.9596584572694,-0.00423135137178665,1,15.2666666666667,29.9
0.366666666666667,11.7993443063319,17.7253788183255,4.95541873431662,-0.00423972295277775,1,15.2333333333333,29.9
0.4,11.799222649479,17.8904886551504,4.95117346083365,-0.00424527348297676,1,15.2,29.9
0.433333333333333,11.7990957912305,18.0554569154507,4.94692466005147,-0.00424880078217171,1,15.1666666666667,29.9
0.466666666666667,11.7989645260919,18.2202835076691,4.94267378291915,-0.0042508771323293,1,15.1333333333333,29.9
0.5,11.7988293608452,18.3849683812022,4.93842186982132,-0.00425191309782669,1,15.1,29.9
0.533333333333333,11.798690518217,18.5495115147202,4.93416966651162,-0.00425220330969811,1,15.0666666666667,29.9
0.566666666666667,11.7985479618787,18.7139129078039,4.92991770722845,-0.00425195928316757,1,15.0333333333333,29.9
0.6,11.7984014429359,18.8781725749668,4.92566637431636,-0.00425133291209523,1,15,29.9
0.633333333333333,11.7982505641015,19.0422905413909,4.92141594103718,-0.0042504332791804,1,14.9666666666667,29.9
0.666666666666667,11.798094853826,19.2062668398918,4.91716660234532,-0.00424933869186184,1,14.9333333333333,29.9
0.7,11.7979338402032,19.3701015087643,4.91291849703216,-0.00424810531315867,1,14.9,29.9
0.733333333333333,11.7977671142643,19.5337945902539,4.9086717236742,-0.00424677335796098,1,14.8666666666667,29.9
0.766666666666667,11.7975943743825,19.6973461294698,4.90442635213198,-0.00424537154221483,1,14.8333333333333,29.9
0.8,11.7974154473305,19.8607561736066,4.90018243185177,-0.00424392028021092,1,14.8,29.9
0.833333333333333,11.7972302860541,20.0240247713808,4.89593999785759,-0.00424243399418511,1,14.7666666666667,29.9
0.866666666666667,11.7970389483524,20.1871519726138,4.89169907505463,-0.00424092280295341,1,14.7333333333333,29.9
0.9,11.7968415635015,20.3501378279202,4.88745968127946,-0.00423939377516991,1,14.7,29.9
0.933333333333333,11.7966382949401,20.5129823884702,4.8832218294141,-0.00423785186536385,1,14.6666666666667,29.9
0.966666666666667,11.7964287020643,20.6756857052397,4.87898554740237,-0.00423628201173276,1,14.6333333333333,29.9
1,11.7962096761355,20.8382478267663,4.87475087266565,-0.00423467473672012,1,14.6,29.9
1.03333333333333,11.7959752811427,21.000668798378,4.8705178641705,-0.00423300849514874,1,14.5666666666667,29.9
1.06666666666667,11.7957150415015,21.1629486595056,4.86628665804388,-0.00423120612662142,1,14.5333333333333,29.9
1.1,11.7954130333548,21.3250874407074,4.8620574976976,-0.00422916034627185,1,14.5,29.9
1.13333333333333,11.7950510418232,21.4870851637449,4.8578306132538,-0.00422688444379826,1,14.4666666666667,29.9
1.16666666666667,11.7946152438446,21.6489418462003,4.8536059922882,-0.00422462096560317,1,14.4333333333333,29.9
1.2,11.7940992062483,21.8106575052713,4.84938335691511,-0.0042226353730932,1,14.4,29.9
1.23333333333333,11.7935027671823,21.9722321600618,4.84516231364674,-0.00422104326837136,1,14.3666666666667,29.9
1.26666666666667,11.7928307416354,22.1336658357413,4.84094237634836,-0.00421993729838199,1,14.3333333333333,29.9
1.3,11.7920926651429,22.2949585705234,4.83672321857492,-0.00421915777343784,1,14.3,29.9
1.33333333333333,11.791298997503,22.4561104140141,4.83250483324876,-0.00421838532615748,1,14.2666666666667,29.9
1.36666666666667,11.7904594565248,22.6171214250223,4.82828734554317,-0.0042174877055885,1,14.2333333333333,29.9
1.4,11.7895824404926,22.7779916722284,4.82407142625761,-0.00421591928556353,1,14.2,29.9
1.43333333333333,11.7886747374632,22.9387213062052,4.81986237220296,-0.00420905405465177,1,14.1666666666667,29.9
1.46666666666667,11.7877414150533,23.099310757015,4.81567163737295,-0.00419073483000165,1,14.1333333333333,29.9
1.5,11.7867858210382,23.2597608901469,4.81151391483513,-0.00415772253782709,1,14.1,29.9
1.53333333333333,11.7858096625558,23.4200730774941,4.80740512317159,-0.00410879166353428,1,14.0666666666667,29.9
1.56666666666667,11.7848131581655,23.5802492037523,4.80336019110209,-0.00404493206950196,1,14.0333333333333,29.9
1.6,11.7837952670137,23.7402915956541,4.79939092592419,-0.00396926517790153,1,14,29.9
1.63333333333333,11.7827539935337,23.9002028931421,4.79550440421794,-0.0038865217062467,1,13.9666666666667,29.9
1.66666666666667,11.781686750834,24.0599858704237,4.79170196674257,-0.00380243747536912,1,13.9333333333333,29.9
1.7,11.7805907487552,24.2196432653147,4.78798051313645,-0.00372145360611942,1,13.9,29.9
1.73333333333333,11.7794633560042,24.3791786873647,4.78457257964349,-0.00340793349296487,1,13.8666666666667,29.9
1.76666666666667,11.7783020661245,24.5386601954482,4.78604305984448,0.00147048020098683,1,13.8333333333333,29.9
1.8,11.7771039082607,24.6983572531901,4.79795664481934,0.0119135849748648,1,13.8,29.9
1.83333333333333,11.7758658955137,24.8586432966138,4.82136937981576,0.0234127349964179,4,13.7666666666667,29.9
1.86666666666667,11.7745854610425,25.0198895214636,4.85533573222241,0.0339663524066482,4,13.7333333333333,29.9
1.9,11.773260529326,25.1824209177498,4.89822119587553,0.0428854636531186,4,13.7,29.9
1.93333333333333,11.7718893749783,25.3465073606559,4.94838587747626,0.0501646816007311,4,13.6666666666667,29.9
1.96666666666667,11.7704704397515,25.5123644046487,5.00421637502744,0.0558304975511863,4,13.6333333333333,29.9
2,11.7690021867147,25.6801556878723,5.06423465031167,0.0600182752842313,4,13.6,29.9
2.03333333333333,11.7674829937567,25.8499997679851,5.12723068351305,0.0629960332013715,4,13.5666666666667,29.9
2.06666666666667,11.7659111000508,26.0219795187251,5.19225789135505,0.0650272078420038,4,13.5333333333333,29.9
2.1,11.7642846281591,26.1961489783472,5.2585141181529,0.066256226797849,4,13.5,29.9
2.13333333333333,11.7626016610718,26.3725377395007,5.32534931190358,0.066835193750685,4,13.4666666666667,29.9
2.16666666666667,11.7608603261311,26.5511560368411,5.39223532588445,0.0668860139808682,4,13.4333333333333,29.9
2.2,11.7590588745234,26.7319987085742,5.45878858193373,0.0665532560492785,4,13.4,29.9
2.23333333333333,11.7571957283891,26.9150494816499,5.52470740490375,0.0659188229700209,4,13.3666666666667,29.9
2.26666666666667,11.7552695031141,27.1002836279477,5.58980082791045,0.0650934230067,4,13.3333333333333,29.9
2.3,11.7532789838258,27.2876718340436,5.65397141384728,0.0641705859368287,4,13.3,29.9
2.33333333333333,11.7512230868566,27.4771825431284,5.7171847769179,0.0632133630706244,4,13.2666666666667,29.9
2.36666666666667,11.7491008075998,27.6687840892529,5.77946143158083,0.062276654662921,4,13.2333333333333,29.9
2.4,11.7469111755287,27.8624456631796,5.8408257536833,0.0613643221024764,4,13.2,29.9
2.43333333333333,11.7446532268902,28.0581370708184,5.90129179163633,0.0604660379530264,4,13.1666666666667,29.9
2.46666666666667,11.742325989645,28.2558284886343,5.96086129873783,0.0595695071015037,4,13.1333333333333,29.9
2.5,11.7399284994104,28.4554884128493,6.01941624081273,0.058554942074899,4,13.1,29.9
2.53333333333333,11.7374598343169,28.6570809148337,6.07685351290391,0.0574372720911809,4,13.0666666666667,29.9
2.56666666666667,11.7349190995368,28.8605685332671,6.13317357631634,0.0563200634124312,4,13.0333333333333,29.9
2.6,11.732305415562,29.0659146419408,6.1884184352828,0.0552448589664554,4,13,29.9
2.63333333333333,11.7296179179389,29.2730842571614,6.2426413999771,0.054222964694306,4,12.9666666666667,29.9
2.66666666666667,11.72685648184,29.4820441869639,6.2958947985772,0.0532533986000905,4,12.9333333333333,29.9
2.7,11.7240234058888,29.6927629197776,6.34822319299522,0.0523283944180291,4,12.9,29.9
2.73333333333333,11.7211212367697,29.9052099913298,6.39963822376127,0.0514150307660461,4,12.8666666666667,29.9
2.76666666666667,11.7181539611303,30.1193533574005,6.45000419334122,0.0503659695799543,4,12.8333333333333,29.9
2.8,11.7151249452988,30.3351547717416,6.49914972983161,0.0491455364903883,4,12.8,29.9
2.83333333333333,11.7120382638568,30.5525728455205,6.54704170365876,0.0478919738271459,4,12.7666666666667,29.9
2.86666666666667,11.7088961963489,30.771565986304,6.5936974065482,0.0466557028894412,4,12.7333333333333,29.9
2.9,11.7056990914503,30.992093801137,6.6391713602608,0.0454739537125972,4,12.7,29.9
2.93333333333333,11.7024444604096,31.214238885048,6.69391362002052,0.0547422597597258,4,12.6666666666667,29.9
2.96666666666667,11.699125077463,31.4384467539855,6.76145169376097,0.0675380737404492,4,12.6333333333333,29.9
3,11.695737912296,31.6650134885295,6.83458820301552,0.0731365092545513,4,12.6,29.9
3.03333333333333,11.6922823763913,31.8940497038971,6.90915264748914,0.0745644444736131,4,12.5666666666667,29.9
3.06666666666667,11.6887614353072,32.1255605118319,6.98282699096112,0.0736743434719846,4,12.5333333333333,29.9
3.1,11.685180124149,32.3594936779233,7.05440042913758,0.0715734381764603,4,12.5,29.9
3.13333333333333,11.6815423081567,32.5957695027583,7.12338540972129,0.0689849805837035,4,12.4666666666667,29.9
3.16666666666667,11.6778522932024,32.8343000065755,7.18972765509579,0.0663422453745062,4,12.4333333333333,29.9
3.2,11.6741131753041,33.0749994514269,7.25358959470687,0.0638619396110824,4,12.4,29.9
3.23333333333333,11.670328868727,33.3177893145367,7.31522567961288,0.0616360849060085,4,12.3666666666667,29.9
3.26666666666667,11.6665014119925,33.5626000570005,7.37491375664721,0.0596880770343313,4,12.3333333333333,29.9
3.3,11.6626309591426,33.8093711959414,7.4329164960848,0.0580027394375815,4,12.3,29.9
3.33333333333333,11.6587166072392,34.0580504844407,7.48946536973069,0.056548873645891,4,12.2666666666667,29.9
3.36666666666667,11.6547569746604,34.3085928227846,7.54475785359002,0.0552924838593372,4,12.2333333333333,29.9
3.4,11.6507505541992,34.5609590269966,7.598950152386,0.0541922987959733,4,12.2,29.9
3.43333333333333,11.6466958995605,34.8151144555887,7.65215725826885,0.0532071058828514,4,12.1666666666667,29.9
3.46666666666667,11.6425917172947,35.0710270383132,7.70441600605527,0.0522587477864258,4,12.1333333333333,29.9
3.5,11.6384369039859,35.3286656259872,7.75576252419416,0.0513465181388861,4,12.1,29.9
3.53333333333333,11.6342305256425,35.5880010985153,7.80628589860805,0.0505233744138884,4,12.0666666666667,29.9
3.56666666666667,11.6299717907458,35.8490079106464,7.85609667890791,0.0498107802998664,4,12.0333333333333,29.9
3.6,11.6256600578652,36.1116636123107,7.9052650262604,0.0491683473524853,4,12,29.9
3.63333333333333,11.6212948611395,36.3759471222925,7.95380560771398,0.0485405814535778,4,11.9666666666667,29.9
3.66666666666667,11.6168759171792,36.6418376541483,8.0017297595047,0.0479241517907187,4,11.9333333333333,29.9
3.7,11.612403097705,36.9093150058452,8.04905935711737,0.04732959761267,4,11.9,29.9
3.73333333333333,11.6078763911946,37.1783597553086,8.09581869600582,0.0467593388884513,4,11.8666666666667,29.9
3.76666666666667,11.6032958584914,37.4489533202535,8.14203367104692,0.0462149750411029,4,11.8333333333333,29.9
3.8,11.5986615881274,37.7210779333634,8.18772439465584,0.0456907236089208,4,11.8,29.9
3.83333333333333,11.5939736636692,37.9947161980944,8.2328951296778,0.0451707350219568,4,11.7666666666667,29.9
3.86666666666667,11.5892321368608,38.2698509210554,8.2775555080256,0.0446603783478015,4,11.7333333333333,29.9
3.9,11.5844370091359,38.546465215113,8.32171218766383,0.0441566796382347,4,11.7,29.9
3.93333333333333,11.5795882289291,38.8245424110668,8.36537329746041,0.043661109796572,4,11.6666666666667,29.9
3.96666666666667,11.57468570014,39.1040659153465,8.4085302808408,0.0431569833803902,4,11.6333333333333,29.9
4,11.5697293075627,39.3850184553385,8.45115081310353,0.0426205322627364,4,11.6,29.9
