Time,x_ego,y_ego,velocity,acceleration,action,x_ped,y_ped
0,11.8,8.9,5,0,1,15.5,29.9
0.0333333333333333,11.8000091148544,9.0666076888138,4.9964226744322,-0.00357732556779577,1,15.3694444444444,29.9
0.0666666666666667,11.8000675892712,9.23309265184556,4.99264829239274,-0.00377438203946667,1,15.2444444444444,29.9
0.1,11.800210196346,9.39944928494669,4.98873399239185,-0.00391430000088366,1,15.125,29.9
0.133333333333333,11.8004569707599,9.56567356915111,4.98472036152143,-0.00401363087042572,1,15.0111111111111,29.9
0.166666666666667,11.8008157567922,9.73176261499031,4.98063591217161,-0.00408444934982288,1,14.9027777777778,29.9
0.2,11.8012853356785,9.89771434266084,4.97650065102253,-0.00413526114907636,1,14.8,29.9
0.233333333333333,11.8018584783715,10.0635272587961,4.97232875517302,-0.00417189584950695,1,14.7027777777778,29.9
0.266666666666667,11.8025245329095,10.2292002994525,4.96813044092527,-0.00419831424775019,1,14.6111111111111,29.9
0.3,11.8032713961068,10.3947327173759,4.96391319528726,-0.00421724563801185,1,14.525,29.9
0.333333333333333,11.8040868954789,10.5601239988859,4.95968256690853,-0.00423062837873101,1,14.4444444444444,29.9
0.366666666666667,11.8049597033681,10.7253738011702,4.95544268371925,-0.00423988318928181,1,14.3694444444444,29.9
0.4,11.805879927976,10.8904819043583,4.95119661092598,-0.00424607279326228,1,14.3,29.9
0.433333333333333,11.8068394975179,11.0554481748456,4.94694661365015,-0.00424999727583586,1,14.2361111111111,29.9
0.466666666666667,11.8078324020041,11.2202725374979,4.94269435598967,-0.00425225766047621,1,14.1777777777778,29.9
0.5,11.8088548077346,11.3849549550083,4.93844105222699,-0.00425330376268018,1,14.125,29.9
0.533333333333333,11.8099050295939,11.5494954130631,4.9341875802207,-0.00425347200628767,1,14.0777777777778,29.9
0.566666666666667,11.8109833419863,11.7138939102211,4.92993456556753,-0.00425301465317762,1,14.0361111111111,29.9
0.6,11.8120916272089,11.8781504515756,4.9256824441557,-0.00425212141182651,1,14,29.9
0.633333333333333,11.8132328900664,12.0422650453788,4.92143150909526,-0.00425093506044139,1,13.9694444444444,29.9
0.666666666666667,11.8144106971529,12.2062377018761,4.91718194618829,-0.00424956290696965,1,13.9444444444444,29.9
0.7,11.8156286178305,12.3700684336321,4.91293386091057,-0.00424808527772047,1,13.925,29.9
0.733333333333333,11.8168897454684,12.5337572566663,4.90868729950808,-0.00424656140248647,1,13.9111111111111,29.9
0.766666666666667,11.818196361555,12.6973041917726,4.90444226669568,-0.00424503281239819,1,13.9027777777778,29.9
0.8,11.8195489558039,12.8605646657923,4.89152281950716,-0.0129194471885201,1,13.9,29.9
0.833333333333333,11.8209462909261,13.0232789675948,4.87169597692027,-0.0198268425868973,3,13.9,29.9
0.866666666666667,11.8223866318135,13.1852742742493,4.84840752061115,-0.0232884563091131,3,13.9,29.9
0.9,11.823866722812,13.3462622826831,4.81128254195214,-0.0371249786590173,3,13.9,29.9
0.933333333333333,11.8253825512983,13.5059260687614,4.7689780901254,-0.0423044518267321,3,13.9,29.9
0.966666666666667,11.8269308901671,13.6641217317124,4.72321849316732,-0.0457595969580842,3,13.9,29.9
1,11.8285084499735,13.8207919123528,4.67747150196841,-0.0457469911989135,3,13.9,29.9
1.03333333333333,11.8301100331442,13.9758796798229,4.62829400887964,-0.049177493088763,3,13.9,29.9
1.06666666666667,11.8317302023675,14.1292990850959,4.57738764037461,-0.0509063685050348,3,13.9,29.9
1.1,11.8333626597119,14.2810216357848,4.52649722437432,-0.0508904160002874,3,13.9,29.9
1.13333333333333,11.8349993525202,14.4310192499342,4.47390112438002,-0.0525960999943003,3,13.9,29.9
1.16666666666667,11.836628888964,14.5791487261803,4.4144118917845,-0.0594892325955216,3,13.9,29.9
1.2,11.8382399393781,14.7252378405495,4.35147536218528,-0.0629365295992192,3,13.9,29.9
1.23333333333333,11.8398235614496,14.8691718028459,4.28509300788066,-0.0663823543046194,3,13.9,29.9
1.26666666666667,11.8413743867475,15.0108071287417,4.21354415024768,-0.0715488576329797,3,13.9,29.9
1.3,11.8428905442927,15.1500003449791,4.13855244142799,-0.0749917088196925,3,13.9,29.9
1.33333333333333,11.8443729562993,15.2866370609242,4.06014097052266,-0.0784114709053316,3,13.9,29.9
1.36666666666667,11.8458239033368,15.4205742076111,3.97656702556456,-0.083573944958101,3,13.9,29.9
1.4,11.8472465028256,15.5516683866969,3.8895541321164,-0.0870128934481533,3,13.9,29.9
1.43333333333333,11.84864433879,15.6798049410539,3.79910352511908,-0.0904506069973201,3,13.9,29.9
1.46666666666667,11.8500206802432,15.8048692557105,3.70521638749495,-0.0938871376241281,3,13.9,29.9
1.5,11.851378086454,15.9267471238535,3.60791565709731,-0.0973007303976421,3,13.9,29.9
1.53333333333333,11.8527181078729,16.0453243855074,3.50718062994576,-0.100735027151555,3,13.9,29.9
1.56666666666667,11.854041087159,16.1604865655719,3.40301236419635,-0.104168265749412,3,13.9,29.9
1.6,11.8553460754418,16.2721196010087,3.29543368201074,-0.107578682185603,3,13.9,29.9
1.63333333333333,11.8566314392005,16.3801672426762,3.18788983130587,-0.107543850704868,3,13.9,29.9
1.66666666666667,11.8578944113214,16.4845729162166,3.07691527435196,-0.110974556953914,3,13.9,29.9
1.7,11.8591307352492,16.5852223158348,2.96251076683468,-0.114404507517277,3,13.9,29.9
1.73333333333333,11.8603361628966,16.68205893616,2.84814318436634,-0.11436758246834,3,13.9,29.9
1.76666666666667,11.8615065112294,16.7750553604161,2.73209081889347,-0.116052365472872,3,13.9,29.9
1.8,11.8626367826715,16.8640977207291,2.61088807635172,-0.121202742541752,3,13.9,29.9
1.83333333333333,11.8637223633456,16.9490718055587,2.48798010738964,-0.122907968962074,3,13.8991319444444,29.9
1.86666666666667,11.8647595515824,17.029892485412,2.36166722070609,-0.126312886683551,3,13.8965277777778,29.9
1.9,11.865745088859,17.1064459450887,2.2319252241816,-0.129741996524498,3,13.8921875,29.9
1.93333333333333,11.8666771359138,17.1786788632393,2.1025855866527,-0.129339637528901,3,13.8861111111111,29.9
1.96666666666667,11.8675548094818,17.2465685499467,1.97151178984746,-0.131073796805236,3,13.8782986111111,29.9
2,11.8683774336116,17.310071553334,1.83941819848831,-0.132093591359146,3,13.86875,29.9
2.03333333333333,11.8691453827456,17.3692152853463,1.7099425150593,-0.12947568342901,3,13.8574652777778,29.9
2.06666666666667,11.8698594901018,17.4240581178737,1.58133758045293,-0.128604934606376,3,13.8444444444444,29.9
2.1,11.8705205866324,17.47465747572,1.45531032624856,-0.126027254204367,3,13.8296875,29.9
2.13333333333333,11.8711297636486,17.5210986364444,1.33182146489452,-0.123488861354042,3,13.8131944444444,29.9
2.16666666666667,11.8716870242773,17.5633793002225,1.20565296323065,-0.126168501663865,3,13.7949652777778,29.9
2.2,11.8721925913679,17.601524577257,1.0836759723661,-0.12197699086455,3,13.775,29.9
2.23333333333333,11.8726475982172,17.6356459513495,0.964220551853053,-0.11945542051305,3,13.7532986111111,29.9
2.26666666666667,11.8730528337796,17.6658296946871,0.847415067416121,-0.116805484436932,3,13.7298611111111,29.9
2.3,11.873409084706,17.6921644267662,0.733240631507834,-0.114174435908287,3,13.7046875,29.9
2.33333333333333,11.8737167599597,17.714706953686,0.619849330910004,-0.11339130059783,3,13.6777777777778,29.9
2.36666666666667,11.8739765803644,17.733540149478,0.51067289007095,-0.109176440839053,3,13.6491319444444,29.9
2.4,11.8741889641793,17.7487192358112,0.400593096194883,-0.110079793876067,3,13.61875,29.9
2.43333333333333,11.8743547037744,17.7603288858731,0.296481638712129,-0.104111457482754,3,13.5866319444444,29.9
2.46666666666667,11.8744746012073,17.7684517285035,0.19136519796818,-0.105116440743949,3,13.5527777777778,29.9
2.5,11.8745494813948,17.7731690068732,0.0921892056335649,-0.099175992334615,3,13.5171875,29.9
2.53333333333333,11.8745809349633,17.7746239912629,0.00853823344321904,-0.0836509721903459,3,13.4798611111111,29.9
2.56666666666667,11.8745782685095,17.773614600957,0.0431015653052348,0.0345633318620158,4,13.4407986111111,29.9
2.6,11.8745657268453,17.7721811568052,0.00327459419392296,-0.0398269711113119,3,13.4,29.9
2.63333333333333,11.8745657268453,17.7721811568052,0.00396994685206871,0.000695352658145753,5,13.3574652777778,29.9
2.66666666666667,11.8745657268453,17.7721811568052,0.00491943597304812,0.000949489120979407,5,13.3131944444444,29.9
2.7,11.8745657268453,17.7721811568052,0.00602947013966974,0.00111003416662163,5,13.2671875,29.9
2.73333333333333,11.8745657268453,17.7721811568052,0.0071784787440856,0.00114900860441586,5,13.2194444444444,29.9
2.76666666666667,11.8745657268453,17.7721811568052,0.00823547378828806,0.00105699504420246,5,13.1699652777778,29.9
2.8,11.8745657268453,17.7721811568052,0.00907657969667003,0.000841105908381972,5,13.11875,29.9
2.83333333333333,11.8745657268453,17.7721811568052,0.00959841374135959,0.000521834044689556,5,13.0657986111111,29.9
2.86666666666667,11.8745657268453,17.7721811568052,0.00972764379095454,0.000129230049594952,5,13.0111111111111,29.9
2.9,11.8745657268453,17.7721811568052,0.00942647194277553,-0.000301171848179011,5,12.9546875,29.9
2.93333333333333,11.8745657268453,17.7721811568052,0.00869416435459007,-0.000732307588185462,5,12.8965277777778,29.9
2.96666666666667,11.8745657268453,17.7721811568052,0.00756504974613499,-0.00112911460845508,5,12.8366319444444,29.9
3,11.8745657268453,17.7721811568052,0.00610363040119804,-0.00146141934493695,5,12.775,29.9
3.03333333333333,11.8745657268453,17.7721811568052,0.00439758659987711,-0.00170604380132092,5,12.7116319444444,29.9
3.06666666666667,11.8745657268453,17.7721811568052,0.00254951147258191,-0.0018480751272952,5,12.6465277777778,29.9
3.1,11.8745657268453,17.7721811568052,0.000668196879912922,-0.00188131459266899,5,12.5796875,29.9
3.13333333333333,11.8745657268453,17.7721811568052,0.0011397854489946,0.000471588569081677,5,12.5111111111111,29.9
3.16666666666667,11.8745657268453,17.7721811568052,0.00277758481236958,0.00163779936337498,5,12.4407986111111,29.9
3.2,11.8745657268453,17.7721811568052,0.00416418267346623,0.00138659786109666,5,12.36875,29.9
3.23333333333333,11.8745657268453,17.7721811568052,0.00523880711832545,0.00107462444485922,5,12.2949652777778,29.9
3.26666666666667,11.8745657268453,17.7721811568052,0.00596350847405516,0.000724701355729704,5,12.2194444444444,29.9
3.3,11.8745657268453,17.7721811568052,0.0063239066622446,0.000360398188189446,5,12.1421875,29.9
3.33333333333333,11.8745657268453,17.7721811568052,0.00632825229931495,4.34563707034721e-06,5,12.0631944444444,29.9
3.36666666666667,11.8745657268453,17.7721811568052,0.00600504731781099,-0.00032320498150396,5,11.9824652777778,29.9
3.4,11.8745657268453,17.7721811568052,0.0053995434863848,-0.000605503831426191,5,11.9,29.9
3.43333333333333,11.8745657268453,17.7721811568052,0.00456947786566849,-0.000830065620716312,5,11.8157986111111,29.9
3.46666666666667,11.8745657268453,17.7721811568052,0.00358041451213541,-0.000989063353533073,5,11.7298611111111,29.9
3.5,11.8745657268453,17.7721811568052,0.00250104507894609,-0.00107936943318932,5,11.6421875,29.9
3.53333333333333,11.8745657268453,17.7721811568052,0.00139876217727803,-0.00110228290166806,5,11.5527777777778,29.9
3.56666666666667,11.8745657268453,17.7721811568052,0.000335764106099219,-0.00106299807117881,5,11.4616319444444,29.9
3.6,11.8745657268453,17.7721811568052,0.000634116186825133,0.000298352080725914,5,11.36875,29.9
3.63333333333333,11.8745657268453,17.7721811568052,0.00146773543057957,0.000833619243754439,5,11.2741319444444,29.9
3.66666666666667,11.8745657268453,17.7721811568052,0.0021340648274117,0.000666329396832133,5,11.1777777777778,29.9
3.7,11.8745657268453,17.7721811568052,0.00261472689686788,0.000480662069456178,5,11.0796875,29.9
3.73333333333333,11.8745657268453,17.7721811568052,0.00290371149007945,0.000288984593211567,5,10.9798611111111,29.9
3.76666666666667,11.8745657268453,17.7721811568052,0.0030063822999727,0.000102670809893251,5,10.8782986111111,29.9
3.8,11.8745657268453,17.7721811568052,0.00293791665381474,-6.84656461579568e-05,5,10.775,29.9
3.83333333333333,11.8745657268453,17.7721811568052,0.00272133972126827,-0.000216576932546471,5,10.6699652777778,29.9
3.86666666666667,11.8745657268453,17.7721811568052,0.00238532004140422,-0.000336019679864057,5,10.5631944444444,29.9
3.9,11.8745657268453,17.7721811568052,0.00196188774816507,-0.000423432293239144,5,10.4546875,29.9
3.93333333333333,11.8745657268453,17.7721811568052,0.00148422189403071,-0.000477665854134367,5,10.3444444444444,29.9
3.96666666666667,11.8745657268453,17.7721811568052,0.000984631033103228,-0.000499590860927477,5,10.2324652777778,29.9
4,11.8745657268453,17.7721811568052,0.000492824090622468,-0.000491806942480761,5,10.11875,29.9
4.03333333333333,11.8745657268453,17.7721811568052,3.45388698742018e-05,-0.000458285220748266,5,10.0032986111111,29.9
4.06666666666667,11.8745657268453,17.7721811568052,0.000369434475495753,0.000334895605621551,5,9.88611111111111,29.9
4.1,11.8745657268453,17.7721811568052,0.000703826127410322,0.000334391651914569,5,9.7671875,29.9
4.13333333333333,11.8745657268453,17.7721811568052,0.000959071893358397,0.000255245765948076,5,9.64652777777778,29.9
4.16666666666667,11.8745657268453,17.7721811568052,0.00113114858909798,0.00017207669573958,5,9.52413194444444,29.9
4.2,11.8745657268453,17.7721811568052,0.00122111304002806,8.99644509300859e-05,5,9.4,29.9
4.23333333333333,11.8745657268453,17.7721811568052,0.00123440894304787,1.32959030198097e-05,5,9.27413194444444,29.9
4.26666666666667,11.8745657268453,17.7721811568052,0.00118001128169188,-5.43976613559889e-05,5,9.14652777777778,29.9
4.3,11.8745657268453,17.7721811568052,0.00106947854691972,-0.000110532734772164,5,9.0171875,29.9
4.33333333333333,11.8745657268453,17.7721811568052,0.000915979307012064,-0.000153499239907656,5,8.88611111111111,29.9
4.36666666666667,11.8745657268453,17.7721811568052,0.000733352491296866,-0.000182626815715198,5,8.75329861111111,29.9
4.4,11.8745657268453,17.7721811568052,0.000535251004534346,-0.00019810148676252,5,8.61875,29.9
4.43333333333333,11.8745657268453,17.7721811568052,0.00033440690456324,-0.000200844099971107,5,8.48246527777778,29.9
4.46666666666667,11.8745657268453,17.7721811568052,0.000142044258575811,-0.000192362645987428,5,8.34444444444444,29.9
4.5,11.8745657268453,17.7721811568052,3.25462341187107e-05,-0.000109498024457101,5,8.2046875,29.9
4.53333333333333,11.8745657268453,17.7721811568052,0.000182267999407209,0.000149721765288498,5,8.06319444444444,29.9
4.56666666666667,11.8745657268453,17.7721811568052,0.000302321755598697,0.000120053756191488,5,7.91996527777778,29.9
4.6,11.8745657268453,17.7721811568052,0.000390166253034314,8.7844497435617e-05,5,7.775,29.9
4.63333333333333,11.8745657268453,17.7721811568052,0.000445357891362937,5.51916383286231e-05,5,7.62829861111111,29.9
4.66666666666667,11.8745657268453,17.7721811568052,0.000469294585568814,2.39366942058767e-05,5,7.47986111111111,29.9
4.7,11.8745657268453,17.7721811568052,0.000464891289133792,-4.40329643502149e-06,5,7.3296875,29.9
4.73333333333333,11.8745657268453,17.7721811568052,0.000436214753490689,-2.86765356431027e-05,5,7.17777777777778,29.9
4.76666666666667,11.8745657268453,17.7721811568052,0.000388103656807778,-4.8111096682911e-05,5,7.02413194444444,29.9
4.8,11.8745657268453,17.7721811568052,0.000325797482021784,-6.23061747859946e-05,5,6.86875,29.9
4.83333333333333,11.8745657268453,17.7721811568052,0.000254593806992627,-7.12036750291571e-05,5,6.71163194444444,29.9
4.86666666666667,11.8745657268453,17.7721811568052,0.000179549339845677,-7.50444671469496e-05,5,6.55277777777778,29.9
4.9,11.8745657268453,17.7721811568052,0.00010523542726297,-7.43139125827068e-05,5,6.3921875,29.9
4.93333333333333,11.8745657268453,17.7721811568052,3.55541881124389e-05,-6.96812391505315e-05,5,6.22986111111111,29.9
4.96666666666667,11.8745657268453,17.7721811568052,2.6382860484512e-05,-9.17132762792697e-06,5,6.06579861111111,29.9
5,11.8745657268453,17.7721811568052,7.83156066668786e-05,5.19327461823667e-05,5,5.9,29.9
5.03333333333333,11.8745657268453,17.7721811568052,0.000118840644182678,4.05250375157997e-05,5,5.9,29.9
5.06666666666667,11.8745657268453,17.7721811568052,0.000147368549037531,2.85279048548525e-05,5,5.9,29.9
5.1,11.8745657268453,17.7721811568052,0.000164042257269851,1.66737082323204e-05,5,5.9,29.9
5.13333333333333,11.8745657268453,17.7721811568052,7.10141332111707e-05,-9.30281240586805e-05,5,5.9,29.9
5.16666666666667,11.8745739772385,17.7728833457507,0.0406981522819241,0.040627138148713,4,5.9,29.9
5.2,11.8745999321901,17.7750922732494,0.09175684525662,0.0510586929746958,4,5.9,29.9
5.23333333333333,11.8746457688386,17.7789918625056,0.142100363767962,0.0503435185113423,4,5.9,29.9
5.26666666666667,11.8747111963969,17.7845537486262,0.191475594856526,0.0493752310885639,4,5.9,29.9
5.3,11.8747958786655,17.7917425519984,0.239710319102511,0.0482347242459847,4,5.9,29.9
5.33333333333333,11.8748994777318,17.800518806625,0.286745817183087,0.0470354980805761,4,5.9,29.9
5.36666666666667,11.8750217134692,17.810843434835,0.332638722139943,0.0458929049568564,4,5.9,29.9
5.4,11.8751623863249,17.8226793292077,0.377442006687643,0.0448032845476993,4,5.9,29.9
5.43333333333333,11.8753213741863,17.8359909856115,0.421198386575923,0.04375637988828,4,5.9,29.9
5.46666666666667,11.8754986266532,17.8507441949638,0.463943065850252,0.0427446792743293,4,5.9,29.9
5.5,11.8756941551045,17.8669056687863,0.505692708267795,0.0417496424175433,4,5.9,29.9
5.53333333333333,11.8759080139518,17.8844422061959,0.546443065772506,0.0407503575047109,4,5.9,29.9
5.56666666666667,11.8761402863555,17.9033205170882,0.586196393048741,0.0397533272762347,4,5.9,29.9
5.6,11.8763910720676,17.9235074679073,0.624961308699543,0.0387649156508021,4,5.9,29.9
5.63333333333333,11.8766604723592,17.9449702663015,0.662750739201993,0.0377894305024504,4,5.9,29.9
5.66666666666667,11.8769485730396,17.9676766004013,0.699582671279915,0.0368319320779218,4,5.9,29.9
5.7,11.8772554323294,17.9915952236419,0.735507821150364,0.035925149870449,4,5.9,29.9
5.73333333333333,11.8775810743255,18.0166969533739,0.770589716511268,0.0350818953609034,4,5.9,29.9
5.76666666666667,11.877925470991,18.0429545409809,0.804879757471662,0.034290040960394,4,5.9,29.9
5.8,11.878288524161,18.0703423043784,0.838419768740294,0.0335400112686327,4,5.9,29.9
5.83333333333333,11.8786700523139,18.0988358509349,0.871244538298253,0.0328247695579588,4,5.9,29.9
5.86666666666667,11.8790697879184,18.1284123173679,0.903444985081487,0.032200446783234,4,5.9,29.9
5.9,11.8794874721661,18.1590583474148,0.935570601349704,0.0321256162682169,4,5.9,29.9
5.93333333333333,11.8799230797739,18.1907883874944,0.968708505547673,0.0331379041979687,4,5.9,29.9
5.96666666666667,11.880377013767,18.2236597028954,1.00432192383905,0.0356134182913795,4,5.9,29.9
6,11.8808502410124,18.2577816482146,1.04400055499977,0.03967863116072,4,5.9,29.9
6.03333333333333,11.8813442909264,18.2933128182507,1.08907334715238,0.0450727921526028,4,5.9,29.9
6.06666666666667,11.8818611688643,18.3304505576384,1.14054832118161,0.0514749740292331,4,5.9,29.9
6.1,11.8824032898,18.3694217569153,1.19919970314005,0.0586513819584469,4,5.9,29.9
6.13333333333333,11.8829734345585,18.4104752235305,1.26555700928011,0.0663573061400553,4,5.9,29.9
6.16666666666667,11.8835746854842,18.4538722252947,1.3398416390657,0.0742846297855866,4,5.9,29.9
6.2,11.8842103709305,18.4998778589189,1.42208293401906,0.0822412949533629,4,5.9,29.9
6.23333333333333,11.8848840430912,18.5487555424055,1.51214447965565,0.090061545636589,4,5.9,29.9
6.26666666666667,11.8855994366898,18.6007606990039,1.60967268913414,0.0975282094784931,4,5.9,29.9
6.3,11.8863604015675,18.6561335185888,1.71413160650696,0.104458917372817,4,5.9,29.9
6.33333333333333,11.8871708606385,18.7150954033675,1.82495625472707,0.110824648220112,4,5.9,29.9
6.36666666666667,11.8880348185737,18.7778514071445,1.94176164415748,0.116805389430413,4,5.9,29.9
6.4,11.888956396686,18.8445966970309,2.06428928490398,0.122527640746492,4,5.9,29.9
6.43333333333333,11.8899397636875,18.9155163607573,2.19219579416558,0.127906509261609,4,5.9,29.9
6.46666666666667,11.8909890420917,18.990784548108,2.32519108289398,0.1329952887284,4,5.9,29.9
