Time,x_ego,y_ego,velocity,acceleration,action,x_ped,y_ped
0,11.8,8.9,5,0,1,15.5,29.9
0.0333333333333333,11.7999963849159,9.06660768883747,4.99642262383768,-0.00357737616232345,1,15.5,29.9
0.0666666666666667,11.7999731931147,9.23309265291487,4.99264768180993,-0.00377494202774908,1,15.5,29.9
0.1,11.799916633104,9.39944929503992,4.98873172454986,-0.00391595726007044,1,15.5,29.9
0.133333333333333,11.7998187588898,9.56567361580513,4.98471522676415,-0.00401649778570246,1,15.5,29.9
0.166666666666667,11.7996764593977,9.73176275995304,4.98062710743408,-0.00408811933007236,1,15.5,29.9
0.2,11.7994902181123,9.89771469230113,4.97648802629002,-0.00413908114406425,1,15.5,29.9
0.233333333333333,11.7992629022974,10.0635279664076,4.97231276513208,-0.00417526115793354,1,15.5,29.9
0.266666666666667,11.7989987367914,10.2292015592328,4.96811192693604,-0.00420083819604322,1,15.5,29.9
0.3,11.7987025219883,10.3947347526023,4.96389313678642,-0.00421879014962556,1,15.5,29.9
0.333333333333333,11.7983790857285,10.5601270478827,4.95966188828662,-0.00423124849979217,1,15.5,29.9
0.366666666666667,11.7980329207334,10.7253781043321,4.95542214251403,-0.00423974577259845,1,15.5,29.9
0.4,11.7976679501918,10.8904876944443,4.95117675526774,-0.00424538724628842,1,15.5,29.9
0.433333333333333,11.7972873754047,11.0554556715765,4.94692778420367,-0.00424897106407052,1,15.5,29.9
0.466666666666667,11.7968935799033,11.2202819465084,4.94267671060444,-0.00425107359923071,1,15.5,29.9
0.5,11.7964880840536,11.3849664705289,4.93842459960157,-0.00425211100286038,1,15.5,29.9
0.533333333333333,11.7960715560574,11.5495092233064,4.93417221574754,-0.00425238385403137,1,15.5,29.9
0.566666666666667,11.7956444667302,11.7139102051979,4.92992005493644,-0.00425216081110769,1,15.5,29.9
0.6,11.7952092421214,11.8781694349085,4.92566843798017,-0.00425161695626564,1,15.5,29.9
0.633333333333333,11.7947701854031,12.0422869460928,4.92141762443034,-0.00425081354983003,1,15.5,29.9
0.666666666666667,11.7943320606373,12.2062627824234,4.91716787421922,-0.00424975021111784,1,15.5,29.9
0.7,11.7938981336384,12.3700969915007,4.91291937076758,-0.00424850345163996,1,15.5,29.9
0.733333333333333,11.7934716033325,12.533789625252,4.90867224593127,-0.00424712483630874,1,15.5,29.9
0.766666666666667,11.7930538524738,12.6973407348618,4.90442660662855,-0.0042456393027237,1,15.5,29.9
0.8,11.7926444511768,12.8607503693088,4.90018250246917,-0.00424410415938414,1,15.5,29.9
0.833333333333333,11.7922418093317,13.0240185758482,4.89593995190102,-0.00424255056814271,1,15.5,29.9
0.866666666666667,11.7918437078536,13.1871454007484,4.89169896059332,-0.00424099130770639,1,15.5,29.9
0.9,11.7914476843698,13.3501308899697,4.8874595309862,-0.00423942960711532,1,15.5,29.9
0.933333333333333,11.7910512885938,13.5129750896525,4.88322166565765,-0.00423786532855086,1,15.5,29.9
0.966666666666667,11.7906522426412,13.6756780464143,4.87898536762826,-0.00423629802939374,1,15.5,29.9
1,11.7902491174921,13.8382398088102,4.87475062734539,-0.0042347402828673,1,15.5,29.9
1.03333333333333,11.789843400488,14.000660432052,4.87051742787033,-0.00423319947505885,1,15.5,29.9
1.06666666666667,11.7894387456121,14.162939976603,4.86628577631852,-0.00423165155180794,1,15.5,29.9
1.1,11.7890386770754,14.3250785030431,4.86205568624672,-0.00423009007180131,1,15.5,29.9
1.13333333333333,11.7886474708205,14.4870760739422,4.85782717678948,-0.00422850945724118,1,15.5,29.9
1.16666666666667,11.7882686086232,14.6489327500468,4.8536002657221,-0.00422691106737894,1,15.5,29.9
1.2,11.7879058783272,14.8106485925294,4.84937496725258,-0.00422529846952457,1,15.5,29.9
1.23333333333333,11.7875615186043,14.9722236584357,4.84515127997154,-0.00422368728103972,1,15.5,29.9
1.26666666666667,11.7872360159651,15.1336580001907,4.84092918649864,-0.00422209347289648,1,15.5,29.9
1.3,11.7869285609766,15.2949516668845,4.83670866433662,-0.00422052216201596,1,15.5,29.9
1.33333333333333,11.7866374629465,15.4561047055589,4.83248969408193,-0.00421897025469242,1,15.5,29.9
1.36666666666667,11.7863605030894,15.6171171623091,4.8282722633333,-0.00421743074862757,1,15.5,29.9
1.4,11.7860952271998,15.7779890831219,4.82405636717151,-0.0042158961617984,1,15.5,29.9
1.43333333333333,11.7858391870477,15.9387205144547,4.81984200675312,-0.00421436041838597,1,15.5,29.9
1.46666666666667,11.7855901383562,16.0993115036012,4.81562918723811,-0.00421281951500774,1,15.5,29.9
1.5,11.7853461971659,16.2597620988959,4.81141791573245,-0.00421127150566747,1,15.5,29.9
1.53333333333333,11.7851059503777,16.4200723497972,4.80720819955379,-0.00420971617865185,1,15.4916666666667,29.9
1.56666666666667,11.7848685136291,16.5802423068704,4.80300004496213,-0.00420815459166679,1,15.4666666666667,29.9
1.6,11.7846335316893,16.7402720216827,4.79879345642608,-0.00420658853604738,1,15.425,29.9
1.63333333333333,11.7844011225829,16.9001615466216,4.79458843641695,-0.00420502000912659,1,15.3752276867031,29.9
1.66666666666667,11.784171210282,17.0599109336544,4.790384969291,-0.00420346712594899,1,15.3259107468124,29.9
1.7,11.783941425182,17.2195202307264,4.78618303494801,-0.0042019343429951,1,15.2770491803279,29.9
1.73333333333333,11.7837071531753,17.3789894821744,4.78198263561452,-0.00420039933348892,1,15.2286429872495,29.9
1.76666666666667,11.7834622904683,17.5383187301467,4.77778379996629,-0.00419883564822499,1,15.1806921675774,29.9
1.8,11.783200147332,17.6975080158931,4.77358657558322,-0.00419722438306991,1,15.1331967213115,29.9
1.83333333333333,11.7829139495969,17.856557380032,4.76939101679281,-0.00419555879041766,1,15.0861566484517,29.9
1.86666666666667,11.7825972774878,18.015466862544,4.76519717338879,-0.00419384340402029,1,15.0395719489982,29.9
1.9,11.7822448056959,18.1742365033347,4.76100505554795,-0.00419211784083284,1,14.9934426229508,29.9
1.93333333333333,11.7818544604353,18.3328663458019,4.7568146012236,-0.00419045432435272,1,14.9477686703097,29.9
1.96666666666667,11.7814271658144,18.4913564371816,4.75262571548351,-0.00418888574009557,1,14.9025500910747,29.9
2,11.7809659068018,18.6497068281791,4.74843830957024,-0.00418740591326472,1,14.8577868852459,29.9
2.03333333333333,11.7804748853769,18.8079175726848,4.74425232475244,-0.0041859848178003,1,14.8134790528233,29.9
2.06666666666667,11.7799588221719,18.965988727309,4.74006773859515,-0.00418458615729467,1,14.7696265938069,29.9
2.1,11.7794224151075,19.1239203506357,4.73588455907413,-0.00418317952101344,1,14.7262295081967,29.9
2.13333333333333,11.7788699433381,19.2817125022526,4.73170281353034,-0.00418174554379025,1,14.6832877959927,29.9
2.16666666666667,11.7783049966127,19.4393652416996,4.72752253764062,-0.00418027588971892,1,14.6408014571949,29.9
2.2,11.7777305377364,19.5967917938241,4.71813383157193,-0.00938870606869013,1,14.5987704918033,29.9
2.23333333333333,11.777149092555,19.7537324566152,4.69837118144477,-0.0197626501271602,3,14.5571948998179,29.9
2.26666666666667,11.7765623512338,19.9099279368011,4.67342464606477,-0.024946535379998,3,14.5160746812386,29.9
2.3,11.7759710365707,20.0652054666724,4.64329589310732,-0.0301287529574523,3,14.4754098360656,29.9
2.33333333333333,11.7753752863328,20.2193923326952,4.60798665593967,-0.0353092371676542,3,14.4352003642987,29.9
2.36666666666667,11.7747749348753,20.3722868121117,4.56575479969569,-0.0422318562439754,3,14.3954462659381,29.9
2.4,11.7741697305534,20.5236585431508,4.51662419180454,-0.0491306078911569,3,14.3561475409836,29.9
2.43333333333333,11.7735595524411,20.6732485317712,4.45885310187515,-0.0577710899293811,3,14.3173041894353,29.9
2.46666666666667,11.7729450703685,20.8206245589382,4.38378987702128,-0.0750632248538761,3,14.2789162112933,29.9
2.5,11.7723278287592,20.9652106424176,4.29146027958265,-0.0923295974386269,3,14.2409836065574,29.9
2.53333333333333,11.7717093969494,21.1065751808359,4.19050125585417,-0.100959023728477,3,14.2035063752277,29.9
2.56666666666667,11.7710912643404,21.2444596483557,4.08266041099804,-0.10784084485613,3,14.1664845173042,29.9
2.6,11.7704752656636,21.3786343364683,3.96791910862745,-0.114741302370595,3,14.1299180327869,29.9
2.63333333333333,11.7698639789404,21.508898343648,3.84802405293126,-0.119895055696187,3,14.0938069216758,29.9
2.66666666666667,11.7692617118252,21.6351086327257,3.72469964883763,-0.123324404093632,3,14.0581511839709,29.9
2.7,11.7686726210428,21.7571222395861,3.59622557199086,-0.128474076846766,3,14.0229508196721,29.9
2.73333333333333,11.7681005920664,21.8747675616823,3.46260352052448,-0.133622051466385,3,13.9882058287796,29.9
2.76666666666667,11.7675501892549,21.9878730609002,3.32383512080854,-0.138768399715934,3,13.9539162112933,29.9
2.8,11.7670248024342,22.0963250216313,3.18338803917592,-0.140447081632623,3,13.9200819672131,29.9
2.83333333333333,11.7665262638235,22.2000671741109,3.04124162584823,-0.142146413327689,3,13.9200819672131,29.9
2.86666666666667,11.7660556408029,22.2990432796036,2.8974186393992,-0.143822986449031,3,13.9200819672131,29.9
2.9,11.7656143045154,22.3932261936329,2.75364208238049,-0.143776557018715,3,13.9200819672131,29.9
2.93333333333333,11.7652027905984,22.4825887856213,2.60819044034081,-0.145451642039682,3,13.9200819672131,29.9
2.96666666666667,11.7648207035094,22.5670748674084,2.4610425763969,-0.147147863943903,3,13.9200819672131,29.9
3,11.7644669762057,22.6465995566638,2.31049875285268,-0.150543823544221,3,13.9200819672131,29.9
3.03333333333333,11.7641400720989,22.721078231368,2.15831803506931,-0.152180717783374,3,13.9200819672131,29.9
3.06666666666667,11.7638381265944,22.7904703683797,2.00558926060829,-0.152728774461015,3,13.9200819672131,29.9
3.1,11.7635590688227,22.8548102414014,1.85528931820593,-0.150299942402365,3,13.9200819672131,29.9
3.13333333333333,11.7633009982026,22.9141574459922,1.70605039319352,-0.149238925012405,3,13.9200819672131,29.9
3.16666666666667,11.7630624842089,22.9685481629011,1.55790204715157,-0.148148346041953,3,13.9200819672131,29.9
3.2,11.7628424915196,23.0180481935352,1.41260924472613,-0.145292802425438,3,13.9200819672131,29.9
3.23333333333333,11.7626407658178,23.0627238794476,1.26844236053446,-0.144166884191672,3,13.9200819672131,29.9
3.26666666666667,11.7624574582848,23.1026121156548,1.12535639855896,-0.143085961975496,3,13.9200819672131,29.9
3.3,11.7622927014914,23.137777924083,0.985114899516143,-0.14024149904282,3,13.9200819672131,29.9
3.33333333333333,11.7621467888176,23.1682612450224,0.844434518847764,-0.140680380668379,3,13.9200819672131,29.9
3.36666666666667,11.7620200086571,23.1941062306026,0.706797728461399,-0.137636790386365,3,13.9200819672131,29.9
3.4,11.7619126390684,23.2153547726734,0.568640290188407,-0.138157438272993,3,13.9200819672131,29.9
3.43333333333333,11.7618251628862,23.2319901283778,0.430025218826215,-0.138615071362192,3,13.9200819672131,29.9
3.46666666666667,11.7617579845657,23.2439989266731,0.291044799134115,-0.138980419692099,3,13.9200819672131,29.9
3.5,11.7617113071917,23.2513968560701,0.153374137999165,-0.13767066113495,3,13.9200819672131,29.9
3.53333333333333,11.7616849957686,23.2542586508035,0.0189776787487401,-0.134396459250425,3,13.9200819672131,29.9
3.56666666666667,11.7616769139583,23.2531055686466,0.0523503601440788,0.0333726813953388,4,13.9200819672131,29.9
3.6,11.7616722818551,23.2513609031704,0.00107293781612977,-0.0512774223279491,3,13.9200819672131,29.9
3.63333333333333,11.7616722818551,23.2513609031704,0.00170085107109256,0.000627913254962785,5,13.9200819672131,29.9
3.66666666666667,11.7616722818551,23.2513609031704,0.00286893590835137,0.00116808483725881,5,13.9200819672131,29.9
3.7,11.7616722818551,23.2513609031704,0.00445415913149268,0.00158522322314131,5,13.9200819672131,29.9
3.73333333333333,11.7616722818551,23.2513609031704,0.00628110921892628,0.0018269500874336,5,13.9200819672131,29.9
3.76666666666667,11.7616722818551,23.2513609031704,0.00814900760570995,0.00186789838678367,5,13.9200819672131,29.9
3.8,11.7616722818551,23.2513609031704,0.0098567597959436,0.00170775219023365,5,13.9200819672131,29.9
3.83333333333333,11.7616722818551,23.2513609031704,0.0112242333852796,0.00136747358933603,5,13.9200819672131,29.9
3.86666666666667,11.7616722818551,23.2513609031704,0.0121085546364822,0.000884321251202589,5,13.9200819672131,29.9
3.9,11.7616722818551,23.2513609031704,0.0124148110139221,0.000306256377439909,5,13.9200819672131,29.9
3.93333333333333,11.7616722818551,23.2513609031704,0.0121010914163398,-0.000313719597582324,5,13.9200819672131,29.9
3.96666666666667,11.7616722818551,23.2513609031704,0.0111782569895445,-0.00092283442679534,5,13.9200819672131,29.9
4,11.7616722818551,23.2513609031704,0.00970519288032337,-0.0014730641092211,5,13.9200819672131,29.9
4.03333333333333,11.7616722818551,23.2513609031704,0.00778053549365495,-0.00192465738666841,5,13.9200819672131,29.9
4.06666666666667,11.7616722818551,23.2513609031704,0.00553200085919812,-0.00224853463445683,5,13.9200819672131,29.9
4.1,11.7616722818551,23.2513609031704,0.00310446584984498,-0.00242753500935315,5,13.9200819672131,29.9
4.13333333333333,11.7616722818551,23.2513609031704,0.000647889693201539,-0.00245657615664344,5,13.9200819672131,29.9
4.16666666666667,11.7616722818551,23.2513609031704,0.00169397286552251,0.00104608317232098,5,13.9200819672131,29.9
4.2,11.7616722818551,23.2513609031704,0.00379330239389267,0.00209932952837015,5,13.9200819672131,29.9
4.23333333333333,11.7616722818551,23.2513609031704,0.00554584192213907,0.00175253952824641,5,13.9200819672131,29.9
4.26666666666667,11.7616722818551,23.2513609031704,0.0068760990256695,0.00133025710353043,5,13.9200819672131,29.9
4.3,11.7616722818551,23.2513609031704,0.00774001966390385,0.000863920638234347,5,13.9200819672131,29.9
4.33333333333333,11.7616722818551,23.2513609031704,0.00812522630557462,0.000385206641670773,5,13.9200819672131,29.9
4.36666666666667,11.7616722818551,23.2513609031704,0.00804907540005218,-7.6150905522444e-05,5,13.9200819672131,29.9
4.4,11.7616722818551,23.2513609031704,0.00755491185253267,-0.000494163547519508,5,13.9200819672131,29.9
4.43333333333333,11.7616722818551,23.2513609031704,0.00670697786177576,-0.000847933990756912,5,13.9200819672131,29.9
4.46666666666667,11.7616722818551,23.2513609031704,0.00558447073387118,-0.00112250712790458,5,13.9200819672131,29.9
4.5,11.7616722818551,23.2513609031704,0.00427524241684094,-0.00130922831703023,5,13.9200819672131,29.9
4.53333333333333,11.7616722818551,23.2513609031704,0.00286959804450247,-0.00140564437233847,5,13.9200819672131,29.9
4.56666666666667,11.7616722818551,23.2513609031704,0.00145458877509508,-0.0014150092694074,5,13.9200819672131,29.9
4.6,11.7616722818551,23.2513609031704,0.000109113505304829,-0.00134547526979025,5,13.9200819672131,29.9
4.63333333333333,11.7616722818551,23.2513609031704,0.00109994736835773,0.000990833863052906,5,13.9200819672131,29.9
4.66666666666667,11.7616722818551,23.2513609031704,0.00212043749192729,0.00102049012356956,5,13.9200819672131,29.9
4.7,11.7616722818551,23.2513609031704,0.00291643165828207,0.000795994166354773,5,13.9200819672131,29.9
4.73333333333333,11.7616722818551,23.2513609031704,0.00346858847702423,0.000552156818742164,5,13.9200819672131,29.9
4.76666666666667,11.7616722818551,23.2513609031704,0.003773461034714,0.000304872557689774,5,13.9200819672131,29.9
4.8,11.7616722818551,23.2513609031704,0.00384193036407879,6.84693293647879e-05,5,13.9200819672131,29.9
4.83333333333333,11.7616722818551,23.2513609031704,0.00369696163326656,-0.000144968730812228,5,13.9200819672131,29.9
4.86666666666667,11.7616722818551,23.2513609031704,0.00337090079120386,-0.000326060842062706,5,13.9200819672131,29.9
4.9,11.7616722818551,23.2513609031704,0.00290253111574107,-0.000468369675462789,5,13.9200819672131,29.9
4.93333333333333,11.7616722818551,23.2513609031704,0.0023340967452011,-0.000568434370539966,5,13.9200819672131,29.9
4.96666666666667,11.7616722818551,23.2513609031704,0.0017084764954547,-0.000625620249746405,5,13.9200819672131,29.9
5,11.7616722818551,23.2513609031704,0.00106665910342023,-0.000641817392034467,5,13.9200819672131,29.9
5.03333333333333,11.7616722818551,23.2513609031704,0.000445633642193461,-0.000621025461226769,5,13.9200819672131,29.9
5.06666666666667,11.7616722818551,23.2513609031704,0.000123230729001592,-0.000322402913191869,5,13.9200819672131,29.9
5.1,11.7616722818551,23.2513609031704,0.000615280517741009,0.000492049788739417,5,13.9200819672131,29.9
5.13333333333333,11.7616722818551,23.2513609031704,0.00101315006140859,0.000397869543667584,5,13.9200819672131,29.9
5.16666666666667,11.7616722818551,23.2513609031704,0.0013068423026207,0.00029369224121211,5,13.9200819672131,29.9
5.2,11.7616722818551,23.2513609031704,0.00149337560935119,0.000186533306730488,5,13.9200819672131,29.9
5.23333333333333,11.7616722818551,23.2513609031704,0.00157607250146044,8.26968921092508e-05,5,13.9200819672131,29.9
5.26666666666667,11.7616722818551,23.2513609031704,0.00156357756216998,-1.24949392904651e-05,5,13.9200819672131,29.9
5.3,11.7616722818551,23.2513609031704,0.00146869646794081,-9.48810942291629e-05,5,13.9200819672131,29.9
5.33333333333333,11.7616722818551,23.2513609031704,0.00130714659571345,-0.000161549872227366,5,13.9200819672131,29.9
5.36666666666667,11.7616722818551,23.2513609031704,0.00109630298375879,-0.000210843611954661,5,13.9200819672131,29.9
5.4,11.7616722818551,23.2513609031704,0.000854012643647765,-0.00024229034011102,5,13.9200819672131,29.9
5.43333333333333,11.7616722818551,23.2513609031704,0.000597536553670234,-0.000256476089977531,5,13.9200819672131,29.9
5.46666666666667,11.7616722818551,23.2513609031704,0.000342663323740865,-0.000254873229929368,5,13.9200819672131,29.9
5.5,11.7616722818551,23.2513609031704,0.000103022655921706,-0.000239640667819159,5,13.9200819672131,29.9
5.53333333333333,11.7616722818551,23.2513609031704,0.000110388647622682,7.3659917009758e-06,5,13.9200819672131,29.9
5.56666666666667,11.7616722818551,23.2513609031704,0.000289469409083003,0.000179080761460321,5,13.9200819672131,29.9
5.6,11.7616722818551,23.2513609031704,0.000429078854801952,0.000139609445718949,5,13.9200819672131,29.9
5.63333333333333,11.7616722818551,23.2513609031704,0.000526926389939646,9.78475351376942e-05,5,13.9200819672131,29.9
5.66666666666667,11.7616722818551,23.2513609031704,0.000583316266321958,5.63898763823112e-05,5,13.9200819672131,29.9
5.7,11.7616722818551,23.2513609031704,0.000600781302421624,1.74650360996659e-05,5,13.9200819672131,29.9
5.73333333333333,11.7616722818551,23.2513609031704,0.000583641502715614,-1.71397997060093e-05,5,13.9200819672131,29.9
5.76666666666667,11.7616722818551,23.2513609031704,0.000636135229624367,5.24937269087522e-05,5,13.9200819672131,29.9
5.8,11.7616688384162,23.252157560957,0.0469976381376338,0.0463615029080094,4,13.9200819672131,29.9
5.83333333333333,11.7616583874893,23.2545756011144,0.0980011816866801,0.0510035435490463,4,13.9200819672131,29.9
5.86666666666667,11.7616406492738,23.2586818959876,0.148249281226886,0.050248099540206,4,13.9200819672131,29.9
5.9,11.761615774634,23.2644469199511,0.19750014103582,0.0492508598089338,4,13.9200819672131,29.9
5.93333333333333,11.7615839622973,23.2718345025357,0.245592737023683,0.0480925959878635,4,13.9200819672131,29.9
5.96666666666667,11.7615454498418,23.2808049580505,0.292489332845052,0.0468965958213688,4,13.9200819672131,29.9
6,11.7615004983849,23.291319392432,0.338248658836829,0.0457593259917773,4,13.9200819672131,29.9
6.03333333333333,11.7614493895022,23.3033408607185,0.38292289258073,0.0446742337439004,4,13.9200819672131,29.9
6.06666666666667,11.7613924272318,23.3168339941128,0.426554186789705,0.0436312942089748,4,13.9200819672131,29.9
6.1,11.7613299381178,23.3317646973992,0.469176804964349,0.0426226181746443,4,13.9200819672131,29.9
6.13333333333333,11.7612622701367,23.3480997074047,0.510803622594419,0.0416268176300706,4,13.9200819672131,29.9
6.16666666666667,11.7611897914771,23.3658057902697,0.551430926599188,0.0406273040047685,4,13.9200819672131,29.9
6.2,11.7611128845992,23.3848496592829,0.591061879526346,0.039630952927158,4,13.9200819672131,29.9
6.23333333333333,11.7610319375236,23.4051982132199,0.629705694604912,0.0386438150785662,4,13.9200819672131,29.9
