Time,x_ego,y_ego,velocity,acceleration,action,x_ped,y_ped
0,11.8,8.9,7,0,1,15.5,29.9
0.0333333333333333,11.7999991556326,9.13327037939405,6.9961557798823,-0.00384422011770269,1,15.4972222222222,29.9
0.0666666666666667,11.7999938724217,9.36640659880093,6.99196947498367,-0.00418630489862348,1,15.4888888888889,29.9
0.1,11.799981290911,9.5994007551861,6.98769500047537,-0.00427447450830609,1,15.475,29.9
0.133333333333333,11.799959928311,9.83225378487076,6.98349768237817,-0.0041973180971997,1,15.4555555555556,29.9
0.166666666666667,11.7999292675115,10.064967878987,6.9793558991536,-0.00414178322456493,1,15.4305555555556,29.9
0.2,11.7998893888109,10.2975446157421,6.97525415530547,-0.00410174384813455,1,15.4,29.9
0.233333333333333,11.7998406878021,10.5299851341457,6.97118134647772,-0.00407280882774508,1,15.3666666666667,29.9
0.266666666666667,11.7997836887301,10.76229025851,6.96712951555286,-0.00405183092486805,1,15.3333333333333,29.9
0.3,11.7997189398368,10.9944605876619,6.9630929607827,-0.00403655477015707,1,15.3,29.9
0.333333333333333,11.7996469661865,11.2264965588621,6.95906759649829,-0.00402536428440392,1,15.2666666666667,29.9
0.366666666666667,11.7995682542707,11.4583984935997,6.95505049501719,-0.00401710148110634,1,15.2333333333333,29.9
0.4,11.7994832480002,11.6901666304015,6.95103955844974,-0.00401093656744589,1,15.2,29.9
0.433333333333333,11.7993923439172,11.9218011483377,6.94703328355868,-0.00400627489105787,1,15.1666666666667,29.9
0.466666666666667,11.7992958815275,12.1533021838602,6.94303059324841,-0.00400269031027456,1,15.1333333333333,29.9
0.5,11.7991941305593,12.3846698428662,6.93903071576646,-0.00399987748194697,1,15.1,29.9
0.533333333333333,11.7990872798548,12.6159042093404,6.93503309808947,-0.00399761767699491,1,15.0666666666667,29.9
0.566666666666667,11.7989754326791,12.8470053515472,6.93103734382374,-0.00399575426572962,1,15.0333333333333,29.9
0.6,11.7988586113389,13.0779733264704,6.92704316870383,-0.00399417511991107,1,15,29.9
0.633333333333333,11.7987367712691,13.3088081829978,6.92305036873156,-0.00399279997226998,1,14.9666666666667,29.9
0.666666666666667,11.7986098222063,13.5395099642075,6.91905879739163,-0.00399157133992745,1,14.9333333333333,29.9
0.7,11.7984776524496,13.7700787090112,6.91506834937421,-0.00399044801741599,1,14.9,29.9
0.733333333333333,11.7983401518047,14.0005144533354,6.91107894894945,-0.0039894004247687,1,14.8666666666667,29.9
0.766666666666667,11.7981972295258,14.2308172309702,6.90709054165695,-0.00398840729249095,1,14.8333333333333,29.9
0.8,11.7980488250494,14.4609870741784,6.90310308835145,-0.00398745330550732,1,14.8,29.9
0.833333333333333,11.7978949110564,14.6910240141309,6.89911656092095,-0.00398652743049688,1,14.7666666666667,29.9
0.866666666666667,11.7977354899653,14.9209280812169,6.89513093919432,-0.00398562172662675,1,14.7333333333333,29.9
0.9,11.7975705860071,15.1506993052636,6.89114620869842,-0.00398473049590287,1,14.7,29.9
0.933333333333333,11.7974002354391,15.3803377156906,6.88716235902748,-0.00398384967094501,1,14.6666666666667,29.9
0.966666666666667,11.7972244772446,15.6098433416198,6.88317938265898,-0.00398297636849332,1,14.6333333333333,29.9
1,11.7970433460193,15.8392162119523,6.87919727409937,-0.00398210855961612,1,14.6,29.9
1.03333333333333,11.7968568678889,16.0684563554241,6.87521602927541,-0.0039812448239589,1,14.5666666666667,29.9
1.06666666666667,11.7966650594643,16.2975638006468,6.87123564510873,-0.00398038416667834,1,14.5333333333333,29.9
1.1,11.7964679292076,16.5265385761377,6.86725611922461,-0.0039795258841151,1,14.5,29.9
1.13333333333333,11.7962654804937,16.7553803470228,6.86325565098798,-0.00400046823663125,1,14.4666666666667,29.9
1.16666666666667,11.7960578229222,16.9839445404352,6.85060192909058,-0.0126537218974017,1,14.4333333333333,29.9
1.2,11.7958452071734,17.2119140306769,6.82757399487695,-0.023027934213629,3,14.4,29.9
1.23333333333333,11.795627884269,17.4390008039777,6.79763942069116,-0.0299345741857904,3,14.3666666666667,29.9
1.26666666666667,11.7954060856095,17.6649742967027,6.76077769561794,-0.0368617250732202,3,14.3333333333333,29.9
1.3,11.7951800926786,17.8895749231019,6.71526805292745,-0.0455096426904946,3,14.3,29.9
1.33333333333333,11.794950238699,18.112514807767,6.66113388341578,-0.0541341695116699,3,14.2666666666667,29.9
1.36666666666667,11.794716860308,18.3335348307855,6.6000771345353,-0.061056748880473,3,14.2333333333333,29.9
1.4,11.7944803744088,18.5523181540614,6.52693293681213,-0.0731441977231757,3,14.2,29.9
1.43333333333333,11.7942413342513,18.7684328277518,6.4399594627609,-0.0869734740512316,3,14.1666666666667,29.9
1.46666666666667,11.7940003013441,18.9814756786095,6.34262509306665,-0.0973343696942433,3,14.1333333333333,29.9
1.5,11.7937577318514,19.1911878419419,6.2401199369904,-0.102505156076252,3,14.1,29.9
1.53333333333333,11.7935140240267,19.3973969754965,6.13244527006069,-0.107674666929712,3,14.0666666666667,29.9
1.56666666666667,11.7932696275049,19.5999017126859,6.01785828612708,-0.114586983933608,3,14.0333333333333,29.9
1.6,11.7930249818241,19.7985294309556,5.89982618507212,-0.118032101054963,3,14,29.9
1.63333333333333,11.792780543834,19.9931079040425,5.77490544498982,-0.1249207400823,3,13.9666666666667,29.9
1.66666666666667,11.7925368156299,20.1834362368458,5.64481918660992,-0.130086258379901,3,13.9333333333333,29.9
1.7,11.7922943144516,20.3693132029858,5.50782431092486,-0.136994875685054,3,13.9,29.9
1.73333333333333,11.7920536357836,20.5504802034236,5.36222149827892,-0.145602812645948,3,13.8666666666667,29.9
1.76666666666667,11.7918153233528,20.7267364444689,5.21317830691596,-0.149043191362959,3,13.8333333333333,29.9
1.8,11.7915797986278,20.8979963330813,5.06243932492017,-0.150738981995787,3,13.8,29.9
1.83333333333333,11.7913474196016,21.0642320595946,4.91172707829491,-0.150712246625263,3,13.7666666666667,29.9
1.86666666666667,11.791118545261,21.2254154565764,4.7592977779146,-0.152429300380311,3,13.7333333333333,29.9
1.9,11.7908935673659,21.3814896574046,4.60517343418635,-0.154124343728244,3,13.7,29.9
1.93333333333333,11.7906729107844,21.5323690956603,4.44761027144892,-0.157563162737429,3,13.6666666666667,29.9
1.96666666666667,11.7904571090016,21.6778807785493,4.28308056869388,-0.164529702755042,3,13.6333333333333,29.9
2,11.7902467377745,21.8178198570073,4.11326184349408,-0.169818725199805,3,13.6,29.9
2.03333333333333,11.7900423775673,21.9519817640701,3.93645609382418,-0.176805749669902,3,13.5666666666667,29.9
2.06666666666667,11.7898444983902,22.0802497171738,3.75962888811393,-0.176827205710245,3,13.5333333333333,29.9
2.1,11.7896534952612,22.2025660068888,3.57935950983212,-0.180269378281808,3,13.5,29.9
2.13333333333333,11.7894697610674,22.3188735996944,3.3991093899656,-0.180250119866522,3,13.4666666666667,29.9
2.16666666666667,11.7892937262853,22.4290865160576,3.21368057271771,-0.185428817247895,3,13.4333333333333,29.9
2.2,11.7891258563424,22.533090426851,3.02657007924463,-0.187110493473074,3,13.4,29.9
2.23333333333333,11.7889665314291,22.6308293925756,2.83778438464182,-0.188785694602813,3,13.3666666666667,29.9
2.26666666666667,11.7888161644748,22.7222185912431,2.64558421709124,-0.192200167550577,3,13.3333333333333,29.9
2.3,11.7886751588207,22.8071733363727,2.45171708717829,-0.193867129912954,3,13.3,29.9
2.33333333333333,11.7885439053215,22.8856090402678,2.25444157100471,-0.19727551617358,3,13.2666666666667,29.9
2.36666666666667,11.7884227656993,22.9574442217114,2.05588168805076,-0.198559882953952,3,13.2333333333333,29.9
2.4,11.7883118917442,23.0227213367671,1.8612241904593,-0.194657497591459,3,13.2,29.9
2.43333333333333,11.7882112917183,23.0815597699192,1.66962265390086,-0.191601536558441,3,13.1666666666667,29.9
2.46666666666667,11.7881210040912,23.134037048927,1.47957943496487,-0.190043218935988,3,13.1333333333333,29.9
2.5,11.7880410320593,23.1802359841851,1.29293720331967,-0.186642231645197,3,13.1,29.9
2.53333333333333,11.7879713079813,23.2202711316002,1.10975548909249,-0.183181714227178,3,13.0666666666667,29.9
2.56666666666667,11.7879117405191,23.2542587852747,0.930120157519419,-0.179635331573073,3,13.0333333333333,29.9
2.6,11.7878622551144,23.282291839423,0.75249911254549,-0.17762104497393,3,13,29.9
2.63333333333333,11.7878227568564,23.304466589904,0.578605345540653,-0.173893767004837,3,12.9666666666667,29.9
2.66666666666667,11.7877930962624,23.3209071711508,0.408468112892352,-0.170137232648301,3,12.9333333333333,29.9
2.7,11.7877731090503,23.3317401577381,0.242141526653571,-0.166326586238781,3,12.9,29.9
2.73333333333333,11.787762665299,23.3370630777944,0.0778943528472505,-0.164247173806321,3,12.8666666666667,29.9
2.76666666666667,11.7877609029521,23.3374550836037,0.0103581725412887,-0.0675361803059618,3,12.8333333333333,29.9
2.8,11.7877615053803,23.3371159868867,0.00315854156640002,-0.00719963097488867,5,12.8,29.9
2.83333333333333,11.7877615053803,23.3371159868867,0.00491742031452935,0.00175887874812934,5,12.7666666666667,29.9
2.86666666666667,11.7877615053803,23.3371159868867,0.00712609109437806,0.0022086707798487,5,12.7333333333333,29.9
2.9,11.7877615053803,23.3371159868867,0.00960329928512787,0.00247720819074982,5,12.7,29.9
2.93333333333333,11.7877615053803,23.3371159868867,0.0121206560934392,0.00251735680831135,5,12.6666666666667,29.9
2.96666666666667,11.7877615053803,23.3371159868867,0.0144352600894426,0.00231460399600341,5,12.6333333333333,29.9
3,11.7877615053803,23.3371159868867,0.0163188184473732,0.00188355835793053,5,12.6,29.9
3.03333333333333,11.7877615053803,23.3371159868867,0.0175812784050117,0.00126245995763854,5,12.5666666666667,29.9
3.06666666666667,11.7877615053803,23.3371159868867,0.0180877530703249,0.000506474665313228,5,12.5333333333333,29.9
3.1,11.7877615053803,23.3371159868867,0.0177682655448124,-0.000319487525512519,5,12.5,29.9
3.13333333333333,11.7877615053803,23.3371159868867,0.0166204916892721,-0.00114777385554029,5,12.4666666666667,29.9
3.16666666666667,11.7877615053803,23.3371159868867,0.014706219384565,-0.00191427230470714,5,12.4333333333333,29.9
3.2,11.7877615053803,23.3371159868867,0.0121426399757744,-0.0025635794087906,5,12.4,29.9
3.23333333333333,11.7877615053803,23.3371159868867,0.00908983843653707,-0.0030528015392373,5,12.3666666666667,29.9
3.26666666666667,11.7877615053803,23.3371159868867,0.00573595720632003,-0.00335388123021704,5,12.3333333333333,29.9
3.3,11.7877615053803,23.3371159868867,0.00228148878402713,-0.0034544684222929,5,12.3,29.9
3.33333333333333,11.7877615053803,23.3371159868867,0.00107597481332854,-0.00120551397069859,5,12.2666666666667,29.9
3.36666666666667,11.7877615053803,23.3371159868867,0.00415541611711143,0.0030794413037829,5,12.2333333333333,29.9
3.4,11.7877615053803,23.3371159868867,0.00680363274286588,0.00264821662575444,5,12.2,29.9
3.43333333333333,11.7877615053803,23.3371159868867,0.00890347682987394,0.00209984408700807,5,12.1666666666667,29.9
3.46666666666667,11.7877615053803,23.3371159868867,0.0103788173338601,0.00147534050398612,5,12.1333333333333,29.9
3.5,11.7877615053803,23.3371159868867,0.0111962213647445,0.000817404030884475,5,12.1,29.9
3.53333333333333,11.7877615053803,23.3371159868867,0.0113635869834973,0.000167365618752755,5,12.0666666666667,29.9
3.56666666666667,11.7877615053803,23.3371159868867,0.0109261483483481,-0.000437438635149192,5,12.0333333333333,29.9
3.6,11.7877615053803,23.3371159868867,0.00996040818037557,-0.000965740167972528,5,12,29.9
3.63333333333333,11.7877615053803,23.3371159868867,0.00856663032165579,-0.00139377785871978,5,11.9666666666667,29.9
3.66666666666667,11.7877615053803,23.3371159868867,0.00686054899063137,-0.00170608133102442,5,11.9333333333333,29.9
3.7,11.7877615053803,23.3371159868867,0.00496492690719661,-0.00189562208343476,5,11.9,29.9
3.73333333333333,11.7877615053803,23.3371159868867,0.0030015299802705,-0.00196339692692612,5,11.8666666666667,29.9
3.76666666666667,11.7877615053803,23.3371159868867,0.00108399151746854,-0.00191753846280196,5,11.8333333333333,29.9
3.8,11.7877615053803,23.3371159868867,0.000688075594770296,-0.000395915922698242,5,11.8,29.9
3.83333333333333,11.7877615053803,23.3371159868867,0.00223348423337417,0.00154540863860387,5,11.7666666666667,29.9
3.86666666666667,11.7877615053803,23.3371159868867,0.00349228522496768,0.00125880099159351,5,11.7333333333333,29.9
3.9,11.7877615053803,23.3371159868867,0.00442699120359865,0.000934705978630971,5,11.7,29.9
3.93333333333333,11.7877615053803,23.3371159868867,0.00502231762554092,0.00059532642194227,5,11.6666666666667,29.9
3.96666666666667,11.7877615053803,23.3371159868867,0.00528362759556289,0.000261309970021973,5,11.6333333333333,29.9
4,11.7877615053803,23.3371159868867,0.00523432611564484,-4.93014799180513e-05,5,11.6,29.9
4.03333333333333,11.7877615053803,23.3371159868867,0.00491248521635367,-0.000321840899291177,5,11.5666666666667,29.9
4.06666666666667,11.7877615053803,23.3371159868867,0.00436699490502405,-0.000545490311329612,5,11.5333333333333,29.9
4.1,11.7877615053803,23.3371159868867,0.00365352804546585,-0.000713466859558202,5,11.5,29.9
4.13333333333333,11.7877615053803,23.3371159868867,0.00283058327742213,-0.000822944768043724,5,11.4666666666667,29.9
4.16666666666667,11.7877615053803,23.3371159868867,0.00195583267609032,-0.000874750601331803,5,11.4333333333333,29.9
4.2,11.7877615053803,23.3371159868867,0.00108295416839933,-0.000872878507690997,5,11.4,29.9
4.23333333333333,11.7877615053803,23.3371159868867,0.000259076916802504,-0.000823877251596824,5,11.3666666666667,29.9
4.26666666666667,11.7877615053803,23.3371159868867,0.000477085135053063,0.000218008218250559,5,11.3333333333333,29.9
4.3,11.7877615053803,23.3371159868867,0.00109638713207523,0.00061930199702217,5,11.3,29.9
4.33333333333333,11.7877615053803,23.3371159868867,0.00157971585358548,0.000483328721510244,5,11.2666666666667,29.9
4.36666666666667,11.7877615053803,23.3371159868867,0.0019178206532322,0.000338104799646726,5,11.2333333333333,29.9
4.4,11.7877615053803,23.3371159868867,0.00211060234546816,0.00019278169223596,5,11.2,29.9
4.43333333333333,11.7877615053803,23.3371159868867,0.00216597013154933,5.53677860811652e-05,5,11.1666666666667,29.9
4.46666666666667,11.7877615053803,23.3371159868867,0.00209838789845253,-6.75822330968015e-05,5,11.1333333333333,29.9
4.5,11.7877615053803,23.3371159868867,0.00192723373136188,-0.000171154167090644,5,11.1,29.9
4.53333333333333,11.7877615053803,23.3371159868867,0.00167509127859599,-0.000252142452765894,5,11.0666666666667,29.9
4.56666666666667,11.7877615053803,23.3371159868867,0.00136608005113968,-0.00030901122745631,5,11.0333333333333,29.9
4.6,11.7877615053803,23.3371159868867,0.00102431538167746,-0.000341764669462219,5,11,29.9
4.63333333333333,11.7877615053803,23.3371159868867,0.000672569241316677,-0.000351746140360785,5,10.9666666666667,29.9
4.66666666666667,11.7877615053803,23.3371159868867,0.000331182013319948,-0.000341387227996729,5,10.9333333333333,29.9
4.7,11.7877615053803,23.3371159868867,1.72541229348967e-05,-0.000313927890385051,5,10.9,29.9
4.73333333333333,11.7877615053803,23.3371159868867,0.000255873606475131,0.000238619483540234,5,10.8666666666667,29.9
4.76666666666667,11.7877615053803,23.3371159868867,0.000478859832904047,0.000222986226428916,5,10.8333333333333,29.9
4.8,11.7877615053803,23.3371159868867,0.000646346656898207,0.00016748682399416,5,10.8,29.9
4.83333333333333,11.7877615053803,23.3371159868867,0.000756722976537767,0.00011037631963956,5,10.7666666666667,29.9
4.86666666666667,11.7877615053803,23.3371159868867,0.000811710394772181,5.49874182344139e-05,5,10.7333333333333,29.9
4.9,11.7877615053803,23.3371159868867,0.000815819106575487,4.10871180330571e-06,5,10.7,29.9
4.93333333333333,11.7877615053803,23.3371159868867,0.000775722132421709,-4.00969741537781e-05,5,10.6666666666667,29.9
4.96666666666667,11.7877615053803,23.3371159868867,0.000699594283247965,-7.61278491737433e-05,5,10.6333333333333,29.9
5,11.7877615053803,23.3371159868867,0.000596457864122674,-0.000103136419125292,5,10.6,29.9
5.03333333333333,11.7877615053803,23.3371159868867,0.00047557093979784,-0.000120886924324834,5,10.5666666666667,29.9
5.06666666666667,11.7877615053803,23.3371159868867,0.000345886607918938,-0.000129684331878902,5,10.5333333333333,29.9
5.1,11.7877615053803,23.3371159868867,0.000215603750368948,-0.00013028285754999,5,10.5,29.9
5.13333333333333,11.7877615053803,23.3371159868867,9.18217055920877e-05,-0.00012378204477686,5,10.4666666666667,29.9
5.16666666666667,11.7877615053803,23.3371159868867,1.96963045276518e-05,-7.21254010644359e-05,5,10.4333333333333,29.9
5.2,11.7877615053803,23.3371159868867,0.000114652971596777,9.49566670691247e-05,5,10.4,29.9
5.23333333333333,11.7877615053803,23.3371159868867,0.000190247636138773,7.55946645419964e-05,5,10.3666666666667,29.9
5.26666666666667,11.7877615053803,23.3371159868867,0.000245120161017082,5.48725248783096e-05,5,10.3333333333333,29.9
5.3,11.7877615053803,23.3371159868867,0.000279223297557167,3.41031365400849e-05,5,10.3,29.9
5.33333333333333,11.7877615053803,23.3371159868867,0.000293640734682602,1.44174371254343e-05,5,10.2666666666667,29.9
5.36666666666667,11.7877615053803,23.3371159868867,0.000290368622110108,-3.2721125724941e-06,5,10.2333333333333,29.9
5.4,11.7877615053803,23.3371159868867,0.000272077868054273,-1.82907540558344e-05,5,10.2,29.9
5.43333333333333,11.7877615053803,23.3371159868867,0.00024187311543639,-3.02047526178833e-05,5,10.1666666666667,29.9
5.46666666666667,11.7877615053803,23.3371159868867,0.000203062208747287,-3.88109066891023e-05,5,10.1333333333333,29.9
5.5,11.7877615053803,23.3371159868867,0.000158947396115771,-4.41148126315165e-05,5,10.1,29.9
5.53333333333333,11.7877615053803,23.3371159868867,0.000112646682543195,-4.63007135725759e-05,5,10.0666666666667,29.9
5.56666666666667,11.7877615053803,23.3371159868867,6.69508589020354e-05,-4.56958236411596e-05,5,10.0333333333333,29.9
5.6,11.7877615053803,23.3371159868867,2.42189498737137e-05,-4.27319090283217e-05,5,10,29.9
5.63333333333333,11.7877615053803,23.3371159868867,1.36877064330445e-05,-1.05312434406692e-05,5,9.96666666666667,29.9
5.66666666666667,11.7877615053803,23.3371159868867,4.54347079039372e-05,3.17470014708927e-05,5,9.93333333333333,29.9
5.7,11.7877615053803,23.3371159868867,7.02108740391869e-05,2.47761661352497e-05,5,9.9,29.9
5.73333333333333,11.7877615053803,23.3371159868867,8.76965588855524e-05,1.74856848463655e-05,5,9.86666666666667,29.9
5.76666666666667,11.7877615053803,23.3371159868867,0.000196622229270177,0.000108925670384625,5,9.83333333333334,29.9
5.8,11.787760590455,23.3377240927418,0.0344286271681135,0.0342320049388433,4,9.8,29.9
5.83333333333333,11.787757710672,23.339638080659,0.0803385340460977,0.0459099068779842,4,9.76666666666667,29.9
5.86666666666667,11.7877524983009,23.3431012926266,0.127339940076149,0.0470014060300509,4,9.73333333333333,29.9
5.9,11.7877449002678,23.3481461051746,0.175207041848776,0.0478671017726272,4,9.7,29.9
5.93333333333333,11.7877348696251,23.3547981122255,0.223754380110186,0.0485473382614105,4,9.66666666666667,29.9
5.96666666666667,11.787722405466,23.3630487206721,0.271126585819637,0.0473722057094503,4,9.63333333333333,29.9
6,11.7877075460879,23.3728589938277,0.317352093135319,0.0462255073156821,4,9.6,29.9
6.03333333333333,11.7876903201511,23.3841916781262,0.362483912803923,0.0451318196686042,4,9.56666666666667,29.9
6.06666666666667,11.7876707465194,23.3970111225487,0.406564699557659,0.0440807867537364,4,9.53333333333333,29.9
6.1,11.7876488348456,23.4112829712935,0.449629742592712,0.0430650430350526,4,9.5,29.9
6.13333333333333,11.7876245865346,23.4269738901056,0.491702974145293,0.0420732315525811,4,9.46666666666667,29.9
6.16666666666667,11.7875979967908,23.4440508608151,0.53278201255554,0.0410790384102471,4,9.43333333333333,29.9
6.2,11.7875690415145,23.462480702107,0.572865274625145,0.0400832620696051,4,9.4,29.9
6.23333333333333,11.7875376299615,23.4822302834313,0.611958641734954,0.0390933671098088,4,9.36666666666667,29.9
6.26666666666667,11.7875036480596,23.5032667396939,0.65007313045927,0.0381144887243157,4,9.33333333333333,29.9
