Time,x_ego,y_ego,velocity,acceleration,action,x_ped,y_ped
0,11.8,15.9,7,0,1,15.5,29.9
0.0333333333333333,11.7999950604608,16.1332703793853,6.99615579158591,-0.00384420841408595,1,15.4972222222222,29.9
0.0666666666666667,11.7999641537382,16.3664065984576,6.99196960422518,-0.00418618736073029,1,15.4888888888889,29.9
0.1,11.7998905520409,16.5994007520961,6.98769544184844,-0.00427416237673928,1,15.475,29.9
0.133333333333333,11.7997655810578,16.8322537719815,6.98349869867984,-0.00419674316860696,1,15.4555555555556,29.9
0.166666666666667,11.799586215684,17.0649678466966,6.97935778309997,-0.00414091557987195,1,15.4305555555556,29.9
0.2,11.799352925646,17.2975445455269,6.9752568143519,-0.00410096874806687,1,15.4,29.9
0.233333333333333,11.7990680251413,17.5299849932313,6.97118461270543,-0.00407220164647271,1,15.3666666666667,29.9
0.266666666666667,11.7987345809843,17.7622900015135,6.96713321981988,-0.00405139288554146,1,15.3333333333333,29.9
0.3,11.7983558003747,17.9944601590842,6.96309695776033,-0.00403626205955199,1,15.3,29.9
0.333333333333333,11.7979347549317,18.2264958956479,6.9590717736682,-0.00402518409212949,1,15.2666666666667,29.9
0.366666666666667,11.7974742906285,18.4583975274046,6.95505477033974,-0.00401700332846655,1,15.2333333333333,29.9
0.4,11.7969770043477,18.6901652893835,6.9510438733195,-0.00401089702023949,1,15.2,29.9
0.433333333333333,11.7964452158692,18.9217993584007,6.94703759586058,-0.00400627745891668,1,15.1666666666667,29.9
0.466666666666667,11.7958809113137,19.1532998693359,6.94303487271034,-0.00400272315023731,1,15.1333333333333,29.9
0.5,11.7952856686054,19.3846669266591,6.93903494176886,-0.00399993094147977,1,15.1,29.9
0.533333333333333,11.7946605924872,19.6159006126088,6.9350372590069,-0.00399768276196166,1,15.0666666666667,29.9
0.566666666666667,11.7940062870768,19.8470009930368,6.93104143673113,-0.00399582227577078,1,15.0333333333333,29.9
0.6,11.7933228828875,20.0779681216532,6.92704719858964,-0.00399423814148836,1,15,29.9
0.633333333333333,11.7926101192323,20.3088020431821,6.9230543468837,-0.00399285170594599,1,14.9666666666667,29.9
0.666666666666667,11.7918674680903,20.5395027957725,6.9190627390826,-0.00399160780109842,1,14.9333333333333,29.9
0.7,11.7910942760307,20.770070412881,6.91507227123321,-0.00399046784939117,1,14.9,29.9
0.733333333333333,11.7902898984351,21.0005049247503,6.9110828664714,-0.00398940476180609,1,14.8666666666667,29.9
0.766666666666667,11.7894538044598,21.230806359551,6.90709446723286,-0.00398839923854322,1,14.8333333333333,29.9
0.8,11.7885856398243,21.4609747442246,6.90310703007682,-0.00398743715603889,1,14.8,29.9
0.833333333333333,11.7876852447279,21.6910101050553,6.89912052228499,-0.00398650779183107,1,14.7666666666667,29.9
0.866666666666667,11.7867526333333,21.920912468009,6.89513491958766,-0.00398560269732329,1,14.7333333333333,29.9
0.9,11.785787947407,22.1506818588879,6.89115020452782,-0.0039847150598451,1,14.7,29.9
0.933333333333333,11.7847913990686,22.380318303357,6.88716636512629,-0.00398383940153302,1,14.6666666666667,29.9
0.966666666666667,11.7837632163854,22.6098218269026,6.88318339366239,-0.00398297146389925,1,14.6333333333333,29.9
1,11.7827036017602,22.8391924547731,6.87920128551596,-0.00398210814642752,1,14.6,29.9
1.03333333333333,11.7816127080451,23.0684302119383,6.87522003810565,-0.00398124741030692,1,14.5666666666667,29.9
1.06666666666667,11.7804906323979,23.29753513204,6.87124082068326,-0.00397921742239316,1,14.5333333333333,29.9
1.1,11.7793374236787,23.5265074005305,6.86727261591907,-0.00396820476419091,1,14.5,29.9
1.13333333333333,11.7781530975493,23.7553476366866,6.8633312905309,-0.00394132538816816,1,14.4666666666667,29.9
1.16666666666667,11.7769376545802,23.9840569813161,6.85943079393201,-0.00390049659889335,1,14.4333333333333,29.9
1.2,11.7756910968035,24.212636934151,6.85557876410545,-0.00385202982655564,1,14.4,29.9
1.23333333333333,11.7744134388347,24.4410891640985,6.85177798374967,-0.00380078035578446,1,14.3666666666667,29.9
1.26666666666667,11.7731046971636,24.6694184932445,6.84852110559194,-0.00325687815772735,1,14.3333333333333,29.9
1.3,11.7717645495842,24.8977010832156,6.84977863124475,0.00125752565281179,1,14.3,29.9
1.33333333333333,11.7703919789,25.1261475914211,6.85865166633021,0.00887303508545578,1,14.2666666666667,29.9
1.36666666666667,11.7689855494116,25.3550344192732,6.87634889595,0.0176972296197961,1,14.2333333333333,29.9
1.4,11.7675435505344,25.5846663593612,6.90343243607111,0.0270835401211063,4,14.2,29.9
1.43333333333333,11.766064043148,25.8153615570348,6.94019412071741,0.0367616846463044,4,14.1666666666667,29.9
1.46666666666667,11.7645448750844,26.0474446176251,6.98669150244293,0.0464973817255112,4,14.1333333333333,29.9
1.5,11.762983734974,26.2812349370483,7.04255301978177,0.055861517338843,4,14.1,29.9
1.53333333333333,11.7613782254964,26.5170340158373,7.10709837499185,0.064545355210079,4,14.0666666666667,29.9
1.56666666666667,11.7597259231816,26.7551173019049,7.17947584875122,0.0723774737593779,4,14.0333333333333,29.9
1.6,11.7580244171277,26.9957310581441,7.2587906263031,0.0793147775518701,4,14,29.9
1.63333333333333,11.7562713442832,27.2390905959757,7.34407748276046,0.0852868564573637,4,13.9666666666667,29.9
1.66666666666667,11.7544652646058,27.4853789576393,7.43438818073518,0.0903106979747204,4,13.9333333333333,29.9
1.7,11.7526075646865,27.7347489320123,7.52885601230782,0.0944678315726408,4,13.9,29.9
1.73333333333333,11.7506989953939,27.9873258704183,7.62670229692785,0.0978462846200268,4,13.8666666666667,29.9
1.76666666666667,11.7487390638012,28.2432106726393,7.72723921915192,0.100536922224077,4,13.8333333333333,29.9
1.8,11.7467273975632,28.5024828223964,7.82986904457712,0.102629825425193,4,13.8,29.9
1.83333333333333,11.7446670755265,28.7652033568546,7.93408018550982,0.104211140932699,4,13.7666666666667,29.9
1.86666666666667,11.7425630388522,29.031417626147,8.03944090573767,0.105360720227853,4,13.7333333333333,29.9
1.9,11.7404179368045,29.3011577917316,8.14559135359091,0.106150447853246,4,13.7,29.9
1.93333333333333,11.7382331009677,29.5744450849425,8.25223489980597,0.106643546215055,4,13.6666666666667,29.9
1.96666666666667,11.7360116298501,29.8512917954998,8.35912963627123,0.106894736465261,4,13.6333333333333,29.9
2,11.7337550613788,30.1317029319525,8.46608019065069,0.106950554379457,4,13.6,29.9
2.03333333333333,11.7314632235338,30.4156776354431,8.57292838267432,0.10684819202363,4,13.5666666666667,29.9
2.06666666666667,11.7291360161054,30.7032099405373,8.67951944507097,0.106591062396655,4,13.5333333333333,29.9
2.1,11.7267760518886,30.9942889000803,8.78571833259012,0.106198887519145,4,13.5,29.9
2.13333333333333,11.7243849309782,31.288899893541,8.89143865705217,0.105720324462052,4,13.4666666666667,29.9
2.16666666666667,11.7219628307484,31.587026018958,8.99662815957026,0.105189502518087,4,13.4333333333333,29.9
2.2,11.7195091464267,31.8886490274353,9.10125695584081,0.104628796270557,4,13.4,29.9
2.23333333333333,11.7170229485063,32.1937499319064,9.20530961974039,0.104052663899578,4,13.3666666666667,29.9
2.26666666666667,11.7145032662784,32.5023093968989,9.30877989714976,0.103470277409366,4,13.3333333333333,29.9
2.3,11.7119492327051,32.8143079825524,9.41166721110708,0.102887313957318,4,13.3,29.9
2.33333333333333,11.7093601344727,33.1297262928382,9.51397437847525,0.102307167368174,4,13.2666666666667,29.9
2.36666666666667,11.7067354078145,33.4485450617623,9.61570613963882,0.101731761163574,4,13.2333333333333,29.9
2.4,11.7040746111137,33.7707452001704,9.7168682291754,0.101162089536578,4,13.2,29.9
2.43333333333333,11.7013773939572,34.0963078181143,9.81746680309302,0.100598573917621,4,13.1666666666667,29.9
2.46666666666667,11.6986434723991,34.425214217725,9.9175058118466,0.100039008753578,4,13.1333333333333,29.9
2.5,11.6958726155715,34.757445535548,10.0169670955371,0.0994612836905127,4,13.1,29.9
2.53333333333333,11.693064644751,35.0929817132458,10.1157987612627,0.0988316657256316,4,13.0666666666667,29.9
2.56666666666667,11.6902194335449,35.431800809353,10.2139459729651,0.0981472117023916,4,13.0333333333333,29.9
2.6,11.6873369008284,35.773879320525,10.311371365101,0.0974253921358716,4,13,29.9
2.63333333333333,11.6844169992689,36.1191929520548,10.4080662513856,0.09669488628459,4,12.9666666666667,29.9
2.66666666666667,11.68145970165,36.4677175088671,10.5040411998581,0.0959749484725378,4,12.9333333333333,29.9
2.7,11.6784649907863,36.8194292663407,10.5993132205151,0.09527202065693,4,12.9,29.9
2.73333333333333,11.6754328565491,37.1743045167398,10.6938490862185,0.0945358657033939,4,12.8666666666667,29.9
2.76666666666667,11.6723633073491,37.5323175395495,10.7875881999879,0.0937391137693915,4,12.8333333333333,29.9
2.8,11.669256355518,37.8934418703508,10.8805523764484,0.0929641764605851,4,12.8,29.9
2.83333333333333,11.6661119899931,38.2576532623415,10.9728398431365,0.0922874666881111,4,12.7666666666667,29.9
2.86666666666667,11.6629301697419,38.624930380193,11.0645140421968,0.0916741990602379,4,12.7333333333333,29.9
2.9,11.6597108412227,38.9952528290077,11.1555634246006,0.0910493824037921,4,12.7,29.9
