Time,x_ego,y_ego,velocity,acceleration,action,x_ped,y_ped
0,11.8,8.9,5,0,1,15.5,29.9
0.0333333333333333,11.8000084969128,9.06660768881748,4.99642266656749,-0.00357733343251265,1,15.4972222222222,29.9
0.0666666666666667,11.8000630070548,9.23309265201178,4.99264819748004,-0.00377446908744261,1,15.4888888888889,29.9
0.1,11.8001959460706,9.39944928651564,4.98873363986449,-0.00391455761555637,1,15.475,29.9
0.133333333333333,11.8004259903709,9.5656735764033,4.98471956334221,-0.00401407652228158,1,15.4555555555556,29.9
0.166666666666667,11.8007604524026,9.73176263752423,4.98063454350537,-0.00408501983683252,1,15.4305555555556,29.9
0.2,11.8011981959889,9.8977143970112,4.9764986885472,-0.0041358549581787,1,15.4,29.9
0.233333333333333,11.8017324821326,10.063527368792,4.9723262695643,-0.00417241898290044,1,15.3666666666667,29.9
0.266666666666667,11.8023533809798,10.2292004952815,4.96812756296598,-0.00419870659831378,1,15.3333333333333,29.9
0.3,11.8030496098459,10.3947330337461,4.96391007722495,-0.00421748574102665,1,15.3,29.9
0.333333333333333,11.8038098214595,10.5601244728447,4.95967935243602,-0.00423072478893527,1,15.2666666666667,29.9
0.366666666666667,11.8046234561189,10.7253744700869,4.95543949059479,-0.00423986184122604,1,15.2333333333333,29.9
0.4,11.8054812926558,10.8904828044155,4.95119352435785,-0.00424596623694562,1,15.2,29.9
0.433333333333333,11.8063758065437,11.0554493401991,4.94694368659764,-0.00424983776020671,1,15.1666666666667,29.9
0.466666666666667,11.8073013952833,11.2202740001141,4.94269161299411,-0.00425207360353408,1,15.1333333333333,29.9
0.5,11.8082544851298,11.3849567450806,4.93843849464405,-0.00425311835006159,1,15.1,29.9
0.533333333333333,11.809233505261,11.5494975598494,4.93418519179202,-0.00425330285202818,1,15.0666666666667,29.9
0.566666666666667,11.8102387115262,11.7138964431153,4.92993231785316,-0.0042528739388592,1,15.0333333333333,29.9
0.6,11.8112718586543,11.8781534012275,4.9256803015759,-0.00425201627725702,1,15,29.9
0.633333333333333,11.8123357477738,12.0422684446953,4.92142943342318,-0.00425086815271847,1,14.9666666666667,29.9
0.666666666666667,11.8134337037073,12.2062415867729,4.91717990041674,-0.00424953300644582,1,14.9333333333333,29.9
0.7,11.8145690538494,12.3700728434556,4.91293181247377,-0.00424808794296716,1,14.9,29.9
0.733333333333333,11.8157446818633,12.5337622342592,4.90868522281699,-0.00424658965677871,1,14.8666666666667,29.9
0.766666666666667,11.8169627145662,12.6973097832197,4.90444014484667,-0.00424507797032092,1,14.8333333333333,29.9
0.8,11.8182243734377,12.8607155196503,4.90019656726601,-0.00424357758065774,1,14.8,29.9
0.833333333333333,11.8195299903078,13.0239794783604,4.89595446805698,-0.00424209920902996,1,14.7666666666667,29.9
0.866666666666667,11.820879157672,13.1871016992233,4.89171382656919,-0.00424064148779202,1,14.7333333333333,29.9
0.9,11.8222709640179,13.3500822261706,4.88747463223759,-0.00423919433159892,1,14.7,29.9
0.933333333333333,11.8237042569279,13.5129211058255,4.8832368887063,-0.00423774353128703,1,14.6666666666667,29.9
0.966666666666667,11.8251778816337,13.6756183860521,4.8790006132143,-0.00423627549200756,1,14.6333333333333,29.9
1,11.8266908573311,13.8381741146896,4.87476583235537,-0.00423478085892537,1,14.6,29.9
1.03333333333333,11.8282424732801,14.0005883386608,4.87053257611677,-0.0042332562386056,1,14.5666666666667,29.9
1.06666666666667,11.8298323064526,14.162861103543,4.86630087214589,-0.00423170397087258,1,14.5333333333333,29.9
1.1,11.8314601779693,14.3249924535716,4.86207074163479,-0.00423013051110477,1,14.5,29.9
1.13333333333333,11.8331260741932,14.4869824319627,4.85784219741378,-0.00422854422100727,1,14.4666666666667,29.9
1.16666666666667,11.8348300595364,14.6488310813904,4.85361524414364,-0.00422695327013844,1,14.4333333333333,29.9
1.2,11.8365722029878,14.8105384444543,4.84938988005093,-0.00422536409270791,1,14.4,29.9
1.23333333333333,11.8383525315035,14.972104564014,4.84516609946759,-0.0042237805833496,1,14.3666666666667,29.9
1.26666666666667,11.840171013547,15.1335294833277,4.84094389544793,-0.00422220401965667,1,14.3333333333333,29.9
1.3,11.8420275677414,15.2948132460034,4.83672326188095,-0.00422063356697677,1,14.3,29.9
1.33333333333333,11.8439220864556,15.45595589582,4.83250419474526,-0.00421906713568809,1,14.2666666666667,29.9
1.36666666666667,11.8458544627548,15.6169574765069,4.82828669242072,-0.00421750232454166,1,14.2333333333333,29.9
1.4,11.8478246110514,15.7778180315636,4.8240707552141,-0.00421593720662639,1,14.2,29.9
1.43333333333333,11.8498324758202,15.93853760418,4.8198563844192,-0.00421437079489806,1,14.1666666666667,29.9
1.46666666666667,11.8518768656692,16.0990581146966,4.81215565044886,-0.00770073397033411,1,14.1333333333333,29.9
1.5,11.8539546323507,16.2593792866869,4.80792273332366,-0.00423291712520246,1,14.1,29.9
1.53333333333333,11.8560588636892,16.4195303190091,4.80196875918013,-0.00595397414353283,1,14.0666666666667,29.9
1.56666666666667,11.8581732337823,16.579453682125,4.79427183128421,-0.00769692789591581,1,14.0333333333333,29.9
1.6,11.8602772299946,16.7390919154542,4.78485440836182,-0.00941742292238867,1,14,29.9
1.63333333333333,11.8623515159679,16.8983588658375,4.77197364950448,-0.0128807588573441,1,13.9666666666667,29.9
1.66666666666667,11.8643819624716,17.0571392790458,4.75563089511135,-0.0163427543931327,1,13.9333333333333,29.9
1.7,11.8663619920624,17.2153182029532,4.73584908573348,-0.0197818093778661,3,13.9,29.9
1.73333333333333,11.8682912774335,17.3727806383762,4.71260733608933,-0.0232417496441526,3,13.8666666666667,29.9
1.76666666666667,11.8701741019242,17.5294402648237,4.68765040991821,-0.0249569261711216,3,13.8333333333333,29.9
1.8,11.8720159453545,17.685095593727,4.65232478002273,-0.0353256298954809,3,13.8,29.9
1.83333333333333,11.8738227565165,17.8394870462963,4.61179874025826,-0.0405260397644653,3,13.7666666666667,29.9
1.86666666666667,11.8756007228191,17.9924128755347,4.56437369538818,-0.0474250448700779,3,13.7333333333333,29.9
1.9,11.8773535384014,18.1436717919933,4.5117738119374,-0.0525998834507799,3,13.7,29.9
1.93333333333333,11.8790840606542,18.2930625818718,4.45227889494366,-0.0594949169937378,3,13.6666666666667,29.9
1.96666666666667,11.8807932846711,18.4403263492765,4.38414718442275,-0.0681317105209143,3,13.6333333333333,29.9
2,11.8824776546166,18.5852039656077,4.30910327879874,-0.0750439056240113,3,13.6,29.9
2.03333333333333,11.8841261478813,18.7275233093768,4.23063739764635,-0.078465881152388,3,13.5666666666667,29.9
2.06666666666667,11.8857202350425,18.8671701877126,4.14872973496273,-0.0819076626836219,3,13.5333333333333,29.9
2.1,11.8872381143057,19.0040014344733,4.06166012177402,-0.0870696131887065,3,13.5,29.9
2.13333333333333,11.8886597957441,19.1378452094304,3.96943061784993,-0.0922295039240968,3,13.4666666666667,29.9
2.16666666666667,11.8899714829423,19.268558353506,3.8737651413245,-0.0956654765254243,3,13.4333333333333,29.9
2.2,11.8911675595211,19.3960263603712,3.77466487073582,-0.0991002705886834,3,13.4,29.9
2.23333333333333,11.8922493960879,19.5201350474778,3.67215243499448,-0.102512435741336,3,13.3666666666667,29.9
2.26666666666667,11.8932234718331,19.6407415129811,3.5644845952718,-0.107667839722682,3,13.3333333333333,29.9
2.3,11.8940998486169,19.7576734352134,3.45164048427469,-0.112844110997107,3,13.3,29.9
2.33333333333333,11.8948910677273,19.8707585244737,3.33364304736308,-0.117997436911615,3,13.2666666666667,29.9
2.36666666666667,11.8956108264789,19.9798249046306,3.21049365527103,-0.123149392092049,3,13.2333333333333,29.9
2.4,11.8962730530993,20.0847298275804,3.08393779911954,-0.126555856151486,3,13.2,29.9
2.43333333333333,11.8968905193217,20.1853306134679,2.95223306914909,-0.131704729970448,3,13.1666666666667,29.9
2.46666666666667,11.8974736344126,20.2814552273516,2.81535939267705,-0.136873676472045,3,13.1333333333333,29.9
2.5,11.8980306094517,20.3729894774592,2.67680639388579,-0.138552998791264,3,13.1,29.9
2.53333333333333,11.8985670945528,20.4598483034135,2.53483137669485,-0.141975017190936,3,13.0666666666667,29.9
2.56666666666667,11.8990861200721,20.5418889302002,2.38771341884162,-0.147117957853226,3,13.0333333333333,29.9
2.6,11.8995875460087,20.6189690089199,2.23719662762165,-0.150516791219969,3,13,29.9
2.63333333333333,11.9000685902313,20.6909783702323,2.0836564010724,-0.153540226549253,3,12.9666666666667,29.9
2.66666666666667,11.9005253919828,20.757898333963,1.93204627251486,-0.151610128557547,3,12.9333333333333,29.9
2.7,11.9009540844213,20.8198081689434,1.78309992593666,-0.148946346578197,3,12.9,29.9
2.73333333333333,11.9013508657705,20.8768001404816,1.63697026934251,-0.146129656594147,3,12.8666666666667,29.9
2.76666666666667,11.9017124889259,20.9289682397943,1.49366359723405,-0.143306672108458,3,12.8333333333333,29.9
2.8,11.9020363410484,20.9763779191035,1.35145245921462,-0.142211138019438,3,12.8,29.9
2.83333333333333,11.9023205678777,21.0190651475701,1.21030286147369,-0.141149597740925,3,12.7666666666667,29.9
2.86666666666667,11.9025642924041,21.0570651188713,1.0702057638388,-0.140097097634892,3,12.7333333333333,29.9
2.9,11.902767732905,21.0904425034008,0.932965751987491,-0.137240011851308,3,12.7,29.9
2.93333333333333,11.9029317923457,21.1192662181223,0.796988671110162,-0.135977080877329,3,12.6666666666667,29.9
2.96666666666667,11.903057347564,21.1435496420042,0.660518281737204,-0.136470389372958,3,12.6333333333333,29.9
3,11.9031455051353,21.1633032528411,0.525201741034476,-0.135316540702727,3,12.6,29.9
3.03333333333333,11.9031979483832,21.1785959121118,0.392871026995249,-0.132330714039227,3,12.5666666666667,29.9
3.06666666666667,11.9032163331665,21.1894989419503,0.261816010338894,-0.131055016656355,3,12.5333333333333,29.9
3.1,11.9032019144161,21.1960537246531,0.131997718826648,-0.129818291512246,3,12.5,29.9
3.13333333333333,11.9031559684782,21.1983324760059,0.00609500537737422,-0.125902713449274,3,12.4666666666667,29.9
3.16666666666667,11.9030935853533,21.1981293174453,0.00690159236457562,0.000806586987201398,5,12.4333333333333,29.9
3.2,11.9030351849004,21.1979261246375,0.00338743479134034,-0.00351415757323528,5,12.4,29.9
3.23333333333333,11.9030351849004,21.1979261246375,0.00449601124275622,0.00110857645141588,5,12.3666666666667,29.9
3.26666666666667,11.9030351849004,21.1979261246375,0.00592608156394045,0.00143007032118423,5,12.3333333333333,29.9
3.3,11.9030351849004,21.1979261246375,0.00754024775087931,0.00161416618693886,5,12.3,29.9
3.33333333333333,11.9030351849004,21.1979261246375,0.00917074621566401,0.00163049846478469,5,12.2666666666667,29.9
3.36666666666667,11.9030351849004,21.1979261246375,0.0106430737359497,0.00147232752028571,5,12.2333333333333,29.9
3.4,11.9030351849004,21.1979261246375,0.0117966373669141,0.00115356363096436,5,12.2,29.9
3.43333333333333,11.9030351849004,21.1979261246375,0.0125011047947911,0.000704467427876974,5,12.1666666666667,29.9
3.46666666666667,11.9030351849004,21.1979261246375,0.0126676999558583,0.000166595161067273,5,12.1333333333333,29.9
3.5,11.9030351849004,21.1979261246375,0.0122552210994131,-0.000412478856445221,5,12.1,29.9
3.53333333333333,11.9030351849004,21.1979261246375,0.0112710210644996,-0.00098420003491349,5,12.0666666666667,29.9
3.56666666666667,11.9030351849004,21.1979261246375,0.00976755931422101,-0.00150346175027861,5,12.0333333333333,29.9
3.6,11.9030351849004,21.1979261246375,0.00783539974003607,-0.00193215957418493,5,12,29.9
3.63333333333333,11.9030351849004,21.1979261246375,0.00559368462124167,-0.0022417151187944,5,11.9666666666667,29.9
3.66666666666667,11.9030351849004,21.1979261246375,0.00317916890855027,-0.0024145157126914,5,11.9333333333333,29.9
3.7,11.9030351849004,21.1979261246375,0.000734862249624848,-0.00244430665892542,5,11.9,29.9
3.73333333333333,11.9030351849004,21.1979261246375,0.00160078442839192,0.000865922178767071,5,11.8666666666667,29.9
3.76666666666667,11.9030351849004,21.1979261246375,0.00370337603574811,0.00210259160735619,5,11.8333333333333,29.9
3.8,11.9030351849004,21.1979261246375,0.00547018165289741,0.0017668056171493,5,11.8,29.9
3.83333333333333,11.9030351849004,21.1979261246375,0.00682549544287449,0.00135531378997708,5,11.7666666666667,29.9
3.86666666666667,11.9030351849004,21.1979261246375,0.00772360229214103,0.000898106849266546,5,11.7333333333333,29.9
3.9,11.9030351849004,21.1979261246375,0.00814939329287728,0.000425791000736244,5,11.7,29.9
3.93333333333333,11.9030351849004,21.1979261246375,0.00811684003992001,-3.25532529572691e-05,5,11.6666666666667,29.9
3.96666666666667,11.9030351849004,21.1979261246375,0.00766566392076396,-0.000451176119156052,5,11.6333333333333,29.9
4,11.9030351849004,21.1979261246375,0.00685662326474481,-0.000809040656019149,5,11.6,29.9
4.03333333333333,11.9030351849004,21.1979261246375,0.00576588692376855,-0.00109073634097625,5,11.5666666666667,29.9
4.06666666666667,11.9030351849004,21.1979261246375,0.00447897003769681,-0.00128691688607174,5,11.5333333333333,29.9
4.1,11.9030351849004,21.1979261246375,0.00308468116347531,-0.00139428887422151,5,11.5,29.9
4.13333333333333,11.9030351849004,21.1979261246375,0.00166947603305546,-0.00141520513041985,5,11.4666666666667,29.9
4.16666666666667,11.9030351849004,21.1979261246375,0.000312539329064846,-0.00135693670399061,5,11.4333333333333,29.9
4.2,11.9030351849004,21.1979261246375,0.000918170273143954,0.000605630944079107,5,11.4,29.9
4.23333333333333,11.9030351849004,21.1979261246375,0.00196876750360948,0.00105059723046553,5,11.3666666666667,29.9
4.26666666666667,11.9030351849004,21.1979261246375,0.00280112507825717,0.000832357574647692,5,11.3333333333333,29.9
4.3,11.9030351849004,21.1979261246375,0.00339342165000379,0.000592296571746611,5,11.3,29.9
4.33333333333333,11.9030351849004,21.1979261246375,0.00373964879532942,0.000346227145325635,5,11.2666666666667,29.9
4.36666666666667,11.9030351849004,21.1979261246375,0.00384822722597831,0.000108578430648887,5,11.2333333333333,29.9
4.4,11.9030351849004,21.1979261246375,0.00373992040164228,-0.00010830682433603,5,11.2,29.9
4.43333333333333,11.9030351849004,21.1979261246375,0.00344525488225018,-0.000294665519392096,5,11.1666666666667,29.9
4.46666666666667,11.9030351849004,21.1979261246375,0.00300166194918515,-0.000443592933065029,5,11.1333333333333,29.9
4.5,11.9030351849004,21.1979261246375,0.00245054601465861,-0.000551115934526541,5,11.1,29.9
4.53333333333333,11.9030351849004,21.1979261246375,0.00183446457378871,-0.0006160814408699,5,11.0666666666667,29.9
4.56666666666667,11.9030351849004,21.1979261246375,0.00119457480230388,-0.000639889771484831,5,11.0333333333333,29.9
4.6,11.9030351849004,21.1979261246375,0.000568466409093006,-0.000626108393210873,5,11,29.9
4.63333333333333,11.9030351849004,21.1979261246375,1.15379812901699e-05,-0.000556928427802836,5,10.9666666666667,29.9
4.66666666666667,11.9030351849004,21.1979261246375,0.00051957204307843,0.00050803406178826,5,10.9333333333333,29.9
4.7,11.9030351849004,21.1979261246375,0.0009368977586622,0.00041732571558377,5,10.9,29.9
4.73333333333333,11.9030351849004,21.1979261246375,0.00125208523557854,0.000315187476916338,5,10.8666666666667,29.9
4.76666666666667,11.9030351849004,21.1979261246375,0.00146075150576434,0.0002086662701858,5,10.8333333333333,29.9
4.8,11.9030351849004,21.1979261246375,0.00156492913718057,0.000104177631416228,5,10.8,29.9
4.83333333333333,11.9030351849004,21.1979261246375,0.00157214830350468,7.21916632411067e-06,5,10.7666666666667,29.9
4.86666666666667,11.9030351849004,21.1979261246375,0.00149432206821608,-7.78262352885933e-05,5,10.7333333333333,29.9
4.9,11.9030351849004,21.1979261246375,0.00134652457425938,-0.000147797493956699,5,10.7,29.9
4.93333333333333,11.9030351849004,21.1979261246375,0.00114574642494268,-0.000200778149316708,5,10.6666666666667,29.9
4.96666666666667,11.9030351849004,21.1979261246375,0.000909701842777154,-0.000236044582165522,5,10.6333333333333,29.9
5,11.9030351849004,21.1979261246375,0.000655749364909561,-0.000253952477867593,5,10.6,29.9
5.03333333333333,11.9030351849004,21.1979261246375,0.000399973070304466,-0.000255776294605095,5,10.5666666666667,29.9
5.06666666666667,11.9030351849004,21.1979261246375,0.000156455780684927,-0.000243517289619539,5,10.5333333333333,29.9
5.1,11.9030351849004,21.1979261246375,6.32396308553346e-05,-9.32161498295923e-05,5,10.5,29.9
5.13333333333333,11.9030351849004,21.1979261246375,0.000250378876379957,0.000187139245524622,5,10.4666666666667,29.9
5.16666666666667,11.9030351849004,21.1979261246375,0.000399165265826996,0.00014878638944704,5,10.4333333333333,29.9
5.2,11.9030351849004,21.1979261246375,0.000506669613617428,0.000107504347790432,5,10.4,29.9
5.23333333333333,11.9030351849004,21.1979261246375,0.000572609073106201,6.59394594887722e-05,5,10.3666666666667,29.9
5.26666666666667,11.9030351849004,21.1979261246375,0.00059900779192177,2.63987188155697e-05,5,10.3333333333333,29.9
5.3,11.9030351849004,21.1979261246375,0.000589774566413602,-9.23322550816866e-06,5,10.3,29.9
5.33333333333333,11.9030351849004,21.1979261246375,0.000550232608708647,-3.95419577049551e-05,5,10.2666666666667,29.9
5.36666666666667,11.9030351849004,21.1979261246375,0.000486634456628981,-6.35981520796657e-05,5,10.2333333333333,29.9
5.4,11.9030351849004,21.1979261246375,0.000405691358552905,-8.0943098076076e-05,5,10.2,29.9
5.43333333333333,11.9030351849004,21.1979261246375,0.000314141593726476,-9.15497648264285e-05,5,10.1666666666667,29.9
5.46666666666667,11.9030351849004,21.1979261246375,0.000218376591341342,-9.57650023851346e-05,5,10.1333333333333,29.9
5.5,11.9030351849004,21.1979261246375,0.000124137815538991,-9.42387758023509e-05,5,10.1,29.9
5.53333333333333,11.9030351849004,21.1979261246375,3.62915717292041e-05,-8.78462438097867e-05,5,10.0666666666667,29.9
5.56666666666667,11.9030351849004,21.1979261246375,4.13165140919351e-05,5.02494236273107e-06,5,10.0333333333333,29.9
5.6,11.9030351849004,21.1979261246375,0.000105930333374371,6.46138192824362e-05,5,10,29.9
5.63333333333333,11.9030351849004,21.1979261246375,0.000155882342356662,4.99520089822906e-05,5,9.96666666666667,29.9
5.66666666666667,11.9030351849004,21.1979261246375,0.000190532667571418,3.4650325214756e-05,5,9.93333333333333,29.9
5.7,11.9030351849004,21.1979261246375,0.000210160096000696,1.96274284292779e-05,5,9.9,29.9
5.73333333333333,11.9030351849004,21.1979261246375,0.000215817801821824,5.65770582112816e-06,5,9.86666666666667,29.9
5.76666666666667,11.9030351849004,21.1979261246375,0.000209166813089908,-6.65098873191606e-06,5,9.83333333333334,29.9
5.8,11.9030351849004,21.1979261246375,0.000192299616247703,-1.68671968422052e-05,5,9.8,29.9
5.83333333333333,11.9030351849004,21.1979261246375,0.000167565077754412,-2.47345384932911e-05,5,9.76666666666667,29.9
5.86666666666667,11.9030351849004,21.1979261246375,0.000137404188408278,-3.01608893461338e-05,5,9.73333333333333,29.9
5.9,11.9030351849004,21.1979261246375,0.000104204168188377,-3.32000202199011e-05,5,9.7,29.9
5.93333333333333,11.9030351849004,21.1979261246375,7.01763620425329e-05,-3.40278061458437e-05,5,9.66666666666667,29.9
5.96666666666667,11.9030351849004,21.1979261246375,3.72612497632217e-05,-3.29151122793113e-05,5,9.63333333333333,29.9
6,11.9030351849004,21.1979261246375,7.06190517049084e-06,-3.01993445927308e-05,5,9.6,29.9
6.03333333333333,11.9030351849004,21.1979261246375,1.91945338284627e-05,1.21326286579718e-05,5,9.56666666666667,29.9
6.06666666666667,11.9030351849004,21.1979261246375,4.06693133793806e-05,2.1474779550918e-05,5,9.53333333333333,29.9
6.1,11.9030351849004,21.1979261246375,5.69015242441166e-05,1.6232210864736e-05,5,9.5,29.9
6.13333333333333,11.9030351849004,21.1979261246375,6.7778490928381e-05,1.08769666842644e-05,5,9.46666666666667,29.9
6.16666666666667,11.9030351849004,21.1979261246375,7.34914885624656e-05,5.71299763408454e-06,5,9.43333333333333,29.9
6.2,11.9030351849004,21.1979261246375,7.44813537985499e-05,9.89865236084318e-07,5,9.4,29.9
6.23333333333333,11.9030351849004,21.1979261246375,7.13784444538068e-05,-3.10290934474307e-06,5,9.36666666666667,29.9
