Time,x_ego,y_ego,velocity,acceleration,action,x_ped,y_ped
0,11.8,15.9,7,0,1,15.5,29.9
0.0333333333333333,11.8,16.1332703793943,6.99615577953002,-0.00384422046998356,1,15.3694444444444,29.9
0.0666666666666667,11.8,16.3664065988113,6.99196947109348,-0.00418630843653833,1,15.2444444444444,29.9
0.1,11.8,16.5994007552791,6.98769498718995,-0.00427448390352669,1,15.125,29.9
0.133333333333333,11.8,16.8322537852842,6.9834976545359,-0.00419733265404787,1,15.0111111111111,29.9
0.166666666666667,11.799998357061,17.0649678802291,6.97935585590506,-0.00414179863084474,1,14.9027777777778,29.9
0.2,11.7999880751817,17.297544618624,6.975254109692,-0.00410174621305437,1,14.8,29.9
0.233333333333333,11.7999643846814,17.5299851396079,6.9711813160171,-0.00407279367490254,1,14.7027777777778,29.9
0.266666666666667,11.7999278001227,17.7622902673705,6.96712950382589,-0.00405181219121342,1,14.6111111111111,29.9
0.3,11.7998800240869,17.9944606004952,6.96309296361671,-0.00403654020917354,1,14.525,29.9
0.333333333333333,11.7998226214403,18.2264965759989,6.95906760743503,-0.00402535618168098,1,14.4444444444444,29.9
0.366666666666667,11.7997568574343,18.4583985151886,6.95505050870394,-0.00401709873109724,1,14.3694444444444,29.9
0.4,11.7996828842635,18.6901666563587,6.95103958372904,-0.00401092497489941,1,14.3,29.9
0.433333333333333,11.7995980011441,18.9218011778355,6.94703333715118,-0.00400624657786164,1,14.2361111111111,29.9
0.466666666666667,11.799499190033,19.1533022149167,6.9430307016728,-0.0040026354783782,1,14.1777777777778,29.9
0.5,11.7993811033078,19.3846698712948,6.93903093166736,-0.00399977000543839,1,14.125,29.9
0.533333333333333,11.7992365368535,19.6159042272018,6.93503350500229,-0.00399742666506508,1,14.0777777777778,29.9
0.566666666666667,11.7990573261019,19.8470053450494,6.93103805877284,-0.00399544622945669,1,14.0361111111111,29.9
0.6,11.7988359271177,20.07797327357,6.92704429827216,-0.00399376050068057,1,14,29.9
0.633333333333333,11.7985683947439,20.3088080520642,6.92305195459899,-0.00399234367316659,1,13.9694444444444,29.9
0.666666666666667,11.7982538516512,20.5395097135785,6.91906081445488,-0.00399114014411328,1,13.9444444444444,29.9
0.7,11.797893246206,20.7700782873788,6.91507072646449,-0.0039900879903918,1,13.925,29.9
0.733333333333333,11.7974886741498,21.0002540272002,6.89549548720323,-0.0195752392612558,3,13.9111111111111,29.9
0.766666666666667,11.797043057137,21.2293735816113,6.85170480757075,-0.0437906796324787,3,13.9027777777778,29.9
0.8,11.7965598386175,21.4565720560412,6.78023621373332,-0.071468593837432,3,13.9,29.9
0.833333333333333,11.7960428211837,21.6809269237052,6.68109413059835,-0.0991420831349652,3,13.9,29.9
0.866666666666667,11.795496036225,21.901573578731,6.55774936906681,-0.123344761531547,3,13.9,29.9
0.9,11.7949235978262,22.11779180477,6.41539465628278,-0.142354712784027,3,13.9,29.9
0.933333333333333,11.7943293189633,22.3291786988736,6.26787625396581,-0.147518402316972,3,13.9,29.9
0.966666666666667,11.7937165186241,22.5356486252386,6.12038439051049,-0.147491863455317,3,13.9,29.9
1,11.7930882951775,22.7371737618014,5.97119787920535,-0.149186511305136,3,13.9,29.9
1.03333333333333,11.7924475768945,22.9336976141129,5.8203172510237,-0.150880628181656,3,13.9,29.9
1.06666666666667,11.7917971337807,23.1251059419974,5.66427658924016,-0.156040661783542,3,13.9,29.9
1.1,11.7911397170497,23.3111689928938,5.49961013240775,-0.164666456832411,3,13.9,29.9
1.13333333333333,11.7904779964475,23.4915992787666,5.32631852268285,-0.173291609724893,3,13.9,29.9
1.16666666666667,11.7898144393548,23.6661384134469,5.14614645996008,-0.180172062722772,3,13.9,29.9
1.2,11.7891515686789,23.8344989769427,4.95560690872927,-0.190539551230808,3,13.9,29.9
1.23333333333333,11.7884920740897,23.996364882698,4.75646690351146,-0.199140005217811,3,13.9,29.9
1.26666666666667,11.787838574538,24.151506913627,4.55217196970419,-0.20429493380727,3,13.9,29.9
1.3,11.7871936485905,24.2997819853097,4.3444452002386,-0.207726769465593,3,13.9,29.9
1.33333333333333,11.7865600960875,24.441046105163,4.13148481612341,-0.212960384115191,3,13.9,29.9
1.36666666666667,11.7859409170328,24.5751522818474,3.91497229158977,-0.216512524533638,3,13.9,29.9
1.4,11.7853391540237,24.701982919405,3.69495399331466,-0.220018298275114,3,13.9,29.9
1.43333333333333,11.7847578081145,24.8214507975649,3.47320713520067,-0.221746858113986,3,13.9,29.9
1.46666666666667,11.7841996528004,24.9335274023291,3.25147749152113,-0.221729643679543,3,13.9,29.9
1.5,11.7836672524043,25.0382135874572,3.02978163327848,-0.221695858242648,3,13.9,29.9
1.53333333333333,11.7831630024616,25.1355106754811,2.80813113178683,-0.221650501491652,3,13.9,29.9
1.56666666666667,11.7826890931062,25.2254203175427,2.5865339924362,-0.221597139350625,3,13.9,29.9
1.6,11.7822474945839,25.3079443929566,2.36499568856349,-0.221538303872717,3,13.9,29.9
1.63333333333333,11.7818399235556,25.3830851895292,2.14357551868112,-0.221420169882371,3,13.9,29.9
1.66666666666667,11.7814677163289,25.4508626620721,1.92356335342227,-0.220012165258842,3,13.9,29.9
1.7,11.781131697676,25.5113539539957,1.70652455764741,-0.217038795774864,3,13.9,29.9
1.73333333333333,11.7808323346236,25.5646669277374,1.4929049142885,-0.213619643358912,3,13.9,29.9
1.76666666666667,11.7805698623383,25.6109194900711,1.28292202543331,-0.209982888855186,3,13.9,29.9
1.8,11.7803443364798,25.6502351423198,1.07669677558598,-0.206225249847328,3,13.9,29.9
1.83333333333333,11.7801556663074,25.6827413141303,0.874398712330707,-0.202298063255278,3,13.8991319444444,29.9
1.86666666666667,11.7800036176533,25.7085733861068,0.676248796211205,-0.198149916119502,3,13.8965277777778,29.9
1.9,11.7798878526349,25.7278691248892,0.482220420922966,-0.19402837528824,3,13.8921875,29.9
1.93333333333333,11.7798079484602,25.7407675877249,0.292421143516443,-0.189799277406522,3,13.8861111111111,29.9
1.96666666666667,11.7797634079843,25.7474098082514,0.106853081452013,-0.185568062064431,3,13.8782986111111,29.9
2,11.7797512222805,25.7485056485875,0.00853709269231306,-0.0983159887596997,3,13.86875,29.9
2.03333333333333,11.7797533128688,25.7482402841412,0.00831898538546812,-0.00021810730684494,5,13.8574652777778,29.9
2.06666666666667,11.7797637451261,25.7479749557075,0.00377232718837741,-0.00454665819709071,5,13.8444444444444,29.9
2.1,11.7797637451261,25.7479749557075,0.00580805884233528,0.00203573165395788,5,13.8296875,29.9
2.13333333333333,11.7797637451261,25.7479749557075,0.00832263557896622,0.00251457673663094,5,13.8131944444444,29.9
2.16666666666667,11.7797637451261,25.7479749557075,0.0110571905675854,0.00273455498861922,5,13.7949652777778,29.9
2.2,11.7797637451261,25.7479749557075,0.0137256575251206,0.00266846695753512,5,13.775,29.9
2.23333333333333,11.7797637451261,25.7479749557075,0.0160496630453877,0.00232400552026714,5,13.7532986111111,29.9
2.26666666666667,11.7797637451261,25.7479749557075,0.0177875451096743,0.00173788206428657,5,13.7298611111111,29.9
2.3,11.7797637451261,25.7479749557075,0.0187559295057231,0.000968384396048808,5,13.7046875,29.9
2.33333333333333,11.7797637451261,25.7479749557075,0.0188431491740596,8.72196683365176e-05,5,13.6777777777778,29.9
2.36666666666667,11.7797637451261,25.7479749557075,0.0180145597334207,-0.000828589440638849,5,13.6491319444444,29.9
2.4,11.7797637451261,25.7479749557075,0.016310444581877,-0.00170411515154376,5,13.61875,29.9
2.43333333333333,11.7797637451261,25.7479749557075,0.0138376884120374,-0.00247275616983955,5,13.5866319444444,29.9
2.46666666666667,11.7797637451261,25.7479749557075,0.0107567176723464,-0.00308097073969101,5,13.5527777777778,29.9
2.5,11.7797637451261,25.7479749557075,0.00726536318728769,-0.00349135448505872,5,13.5171875,29.9
2.53333333333333,11.7797637451261,25.7479749557075,0.00358130787936676,-0.00368405530792094,5,13.4798611111111,29.9
2.56666666666667,11.7797637451261,25.7479749557075,7.53361352196264e-05,-0.00350597174414713,5,13.4407986111111,29.9
2.6,11.7797637451261,25.7479749557075,0.00349799380508375,0.00342265766986412,5,13.4,29.9
2.63333333333333,11.7797637451261,25.7479749557075,0.00650709408484561,0.00300910027976186,5,13.3574652777778,29.9
2.66666666666667,11.7797637451261,25.7479749557075,0.00896031629307443,0.00245322220822882,5,13.3131944444444,29.9
2.7,11.7797637451261,25.7479749557075,0.010759224143312,0.00179890785023754,5,13.2671875,29.9
2.73333333333333,11.7797637451261,25.7479749557075,0.0118522084457761,0.00109298430246417,5,13.2194444444444,29.9
2.76666666666667,11.7797637451261,25.7479749557075,0.0122339354828207,0.000381727037044564,5,13.1699652777778,29.9
2.8,11.7797637451261,25.7479749557075,0.0119417229487268,-0.000292212534093943,5,13.11875,29.9
2.83333333333333,11.7797637451261,25.7479749557075,0.0110494304510238,-0.000892292497702934,5,13.0657986111111,29.9
2.86666666666667,11.7797637451261,25.7479749557075,0.00965955368335888,-0.00138987676766494,5,13.0111111111111,29.9
2.9,11.7797637451261,25.7479749557075,0.00789425213473506,-0.00176530154862383,5,12.9546875,29.9
2.93333333333333,11.7797637451261,25.7479749557075,0.00588602524104577,-0.00200822689368929,5,12.8965277777778,29.9
2.96666666666667,11.7797637451261,25.7479749557075,0.00376868988035522,-0.00211733536069055,5,12.8366319444444,29.9
3,11.7797637451261,25.7479749557075,0.00166921371505574,-0.00209947616529947,5,12.775,29.9
3.03333333333333,11.7797637451261,25.7479749557075,0.000299164289655354,-0.00137004942540039,5,12.7116319444444,29.9
3.06666666666667,11.7797637451261,25.7479749557075,0.00204223113410594,0.00174306684445059,5,12.6465277777778,29.9
3.1,11.7797637451261,25.7479749557075,0.00348835831118172,0.00144612717707578,5,12.5796875,29.9
3.13333333333333,11.7797637451261,25.7479749557075,0.00459029626291015,0.00110193795172843,5,12.5111111111111,29.9
3.16666666666667,11.7797637451261,25.7479749557075,0.0053252956153221,0.000734999352411955,5,12.4407986111111,29.9
3.2,11.7797637451261,25.7479749557075,0.00569374155284542,0.000368445937523315,5,12.36875,29.9
3.23333333333333,11.7797637451261,25.7479749557075,0.00571655904112821,2.28174882827914e-05,5,12.2949652777778,29.9
3.26666666666667,11.7797637451261,25.7479749557075,0.0054316923596014,-0.000284866681526813,5,12.2194444444444,29.9
3.3,11.7797637451261,25.7479749557075,0.00488998300027137,-0.00054170935933003,5,12.1421875,29.9
3.33333333333333,11.7797637451261,25.7479749557075,0.00415076743939503,-0.000739215560876339,5,12.0631944444444,29.9
3.36666666666667,11.7797637451261,25.7479749557075,0.00327749382602303,-0.000873273613372001,5,11.9824652777778,29.9
3.4,11.7797637451261,25.7479749557075,0.00233361832586662,-0.000943875500156411,5,11.9,29.9
3.43333333333333,11.7797637451261,25.7479749557075,0.00137899223714485,-0.000954626088721767,5,11.8157986111111,29.9
3.46666666666667,11.7797637451261,25.7479749557075,0.000466894684748981,-0.000912097552395868,5,11.7298611111111,29.9
3.5,11.7797637451261,25.7479749557075,0.000358192881487858,-0.000108701803261123,5,11.6421875,29.9
3.53333333333333,11.7797637451261,25.7479749557075,0.00106203105288891,0.000703838171401055,5,11.5527777777778,29.9
3.56666666666667,11.7797637451261,25.7479749557075,0.00162129826050397,0.000559267207615057,5,11.4616319444444,29.9
3.6,11.7797637451261,25.7479749557075,0.00202355493731343,0.000402256676809461,5,11.36875,29.9
3.63333333333333,11.7797637451261,25.7479749557075,0.00226658807869251,0.000243033141379082,5,11.2741319444444,29.9
3.66666666666667,11.7797637451261,25.7479749557075,0.00235725316864572,9.06650899532039e-05,5,11.1777777777778,29.9
3.7,11.7797637451261,25.7479749557075,0.00230994504552989,-4.73081231158251e-05,5,11.0796875,29.9
3.73333333333333,11.7797637451261,25.7479749557075,0.00214483406289347,-0.000165110982636426,5,10.9798611111111,29.9
3.76666666666667,11.7797637451261,25.7479749557075,0.00188599989566414,-0.000258834167229328,5,10.8782986111111,29.9
3.8,11.7797637451261,25.7479749557075,0.00155958398134863,-0.000326415914315511,5,10.775,29.9
3.83333333333333,11.7797637451261,25.7479749557075,0.00119206455336758,-0.000367519427981048,5,10.6699652777778,29.9
3.86666666666667,11.7797637451261,25.7479749557075,0.000808737314442452,-0.000383327238925127,5,10.5631944444444,29.9
3.9,11.7797637451261,25.7479749557075,0.00043246179354955,-0.000376275520892901,5,10.4546875,29.9
3.93333333333333,11.7797637451261,25.7479749557075,8.27099910128948e-05,-0.000349751802536656,5,10.3444444444444,29.9
3.96666666666667,11.7797637451261,25.7479749557075,0.000225068501497995,0.0001423585104851,5,10.2324652777778,29.9
4,11.7797637451261,25.7479749557075,0.000479770924722792,0.000254702423224797,5,10.11875,29.9
4.03333333333333,11.7797637451261,25.7479749557075,0.00067467843891743,0.000194907514194638,5,10.0032986111111,29.9
4.06666666666667,11.7797637451261,25.7479749557075,0.000807242408865251,0.00013256396994782,5,9.88611111111111,29.9
4.1,11.7797637451261,25.7479749557075,0.000878665870266265,7.14234614010148e-05,5,9.7671875,29.9
4.13333333333333,11.7797637451261,25.7479749557075,0.000893331639194551,1.46657689282861e-05,5,9.64652777777778,29.9
4.16666666666667,11.7797637451261,25.7479749557075,0.000858130265495157,-3.52013736993941e-05,5,9.52413194444444,29.9
4.2,11.7797637451261,25.7479749557075,0.000781739451512381,-7.63908139827768e-05,5,9.4,29.9
4.23333333333333,11.7797637451261,25.7479749557075,0.000673902216361671,-0.00010783723515071,5,9.27413194444444,29.9
4.26666666666667,11.7797637451261,25.7479749557075,0.000544744623860808,-0.000129157592500863,5,9.14652777777778,29.9
4.3,11.7797637451261,25.7479749557075,0.000404165983702178,-0.00014057864015863,5,9.0171875,29.9
4.33333333333333,11.7797637451261,25.7479749557075,0.000261325743805709,-0.000142840239896469,5,8.88611111111111,29.9
4.36666666666667,11.7797637451261,25.7479749557075,0.000124242431573866,-0.000137083312231842,5,8.75329861111111,29.9
4.4,11.7797637451261,25.7479749557075,4.88490529674157e-07,-0.000123753941044192,5,8.61875,29.9
4.43333333333333,11.7797637451261,25.7479749557075,0.000107858675907157,0.000107370185377483,5,8.48246527777778,29.9
4.46666666666667,11.7797637451261,25.7479749557075,0.00019450022403589,8.66415481287321e-05,5,8.34444444444444,29.9
4.5,11.7797637451261,25.7479749557075,0.00025864086531075,6.41406412748603e-05,5,8.2046875,29.9
4.53333333333333,11.7797637451261,25.7479749557075,0.000299977323330193,4.1336458019443e-05,5,8.06319444444444,29.9
4.56666666666667,11.7797637451261,25.7479749557075,0.000319485463606679,1.95081402764861e-05,5,7.91996527777778,29.9
4.6,11.7797637451261,25.7479749557075,0.000319186741788254,-2.98721818424452e-07,5,7.775,29.9
4.63333333333333,11.7797637451261,25.7479749557075,0.00030189013402795,-1.72966077603044e-05,5,7.62829861111111,29.9
4.66666666666667,11.7797637451261,25.7479749557075,0.0002709273643393,-3.09627696886498e-05,5,7.47986111111111,29.9
4.7,11.7797637451261,25.7479749557075,0.000229897066786666,-4.10302975526345e-05,5,7.3296875,29.9
4.73333333333333,11.7797637451261,25.7479749557075,0.000182430775505218,-4.7466291281448e-05,5,7.17777777777778,29.9
4.76666666666667,11.7797637451261,25.7479749557075,3.33781320178124e-05,-0.000149052643487405,5,7.02413194444444,29.9
4.8,11.7797600019833,25.7488425821968,0.0517195663270306,0.0516861881950128,4,6.86875,29.9
4.83333333333333,11.7797488911447,25.7514176866378,0.102685541626207,0.050965975299176,4,6.71163194444444,29.9
4.86666666666667,11.7797304885901,25.7556791606432,0.1528639363038,0.0501783946775933,4,6.55277777777778,29.9
4.9,11.7797048887199,25.761596606775,0.202023499673125,0.049159563369325,4,6.3921875,29.9
4.93333333333333,11.7796721843525,25.769133260449,0.250011699210605,0.0479881995374803,4,6.22986111111111,29.9
4.96666666666667,11.7796324460351,25.7782492702414,0.296806284103116,0.0467945848925112,4,6.06579861111111,29.9
5,11.7795856992946,25.7889058783755,0.342467242000558,0.0456609578974416,4,5.9,29.9
5.03333333333333,11.7795319183721,25.8010662594595,0.387045907986408,0.0445786659858498,4,5.9,29.9
5.06666666666667,11.7794710358324,25.814695143059,0.430583895409093,0.0435379874226852,4,5.9,29.9
5.1,11.7794029740527,25.8297585155025,0.473114784749852,0.0425308893407593,4,5.9,29.9
5.13333333333333,11.7793276447697,25.8462231282324,0.514648752312773,0.0415339675629208,4,5.9,29.9
5.16666666666667,11.7792449926453,25.864055718048,0.555182687903696,0.0405339355909227,4,5.9,29.9
5.2,11.779154969616,25.8832229957749,0.594720654384148,0.0395379664804523,4,5.9,29.9
5.23333333333333,11.7790575288849,25.9036918791942,0.633272506062613,0.0385518516784653,4,5.9,29.9
5.26666666666667,11.7789526303003,25.9254299567311,0.670895198900109,0.0376226928374956,4,5.9,29.9
5.3,11.7788402133214,25.9484134366754,0.708171318491896,0.0372761195917869,4,5.9,29.9
5.33333333333333,11.7787200913819,25.9726529873842,0.746567856266469,0.0383965377745736,4,5.9,29.9
5.36666666666667,11.7785918498455,25.9982181462323,0.788033222077438,0.0414653658109683,4,5.9,29.9
5.4,11.7784548621487,26.0252411780176,0.834298380211825,0.0462651581343878,4,5.9,29.9
5.43333333333333,11.7783084397198,26.0539050923235,0.886681851821288,0.0523834716094621,4,5.9,29.9
5.46666666666667,11.7781518297509,26.0844312275489,0.946174943722802,0.059493091901514,4,5.9,29.9
5.5,11.7779843972827,26.1170686840393,1.01343788597875,0.0672629422559499,4,5.9,29.9
5.53333333333333,11.7778056844765,26.1520819177028,1.08874219315783,0.0753043071790815,4,5.9,29.9
5.56666666666667,11.7776152532922,26.1897401408061,1.17212693071225,0.083384737554417,4,5.9,29.9
5.6,11.7774126269473,26.2303107681703,1.2634361028055,0.0913091720932542,4,5.9,29.9
5.63333333333333,11.7771972789562,26.2740514120171,1.3622378851938,0.0988017823882987,4,5.9,29.9
5.66666666666667,11.7769686200661,26.3212022256925,1.46793816688815,0.105700281694344,4,5.9,29.9
5.7,11.7767259741231,26.3719815565348,1.57982665002363,0.111888483135483,4,5.9,29.9
5.73333333333333,11.7764685581354,26.4265826298334,1.69711323792521,0.117286587901578,4,5.9,29.9
5.76666666666667,11.7761954697522,26.4851717522783,1.81898194702061,0.121868709095404,4,5.9,29.9
5.8,11.7759056859884,26.5478882326606,1.94463278179707,0.125650834776458,4,5.9,29.9
5.83333333333333,11.7755980840991,26.6148442736266,2.07319551404875,0.128562732251676,4,5.9,29.9
5.86666666666667,11.775271506109,26.6861201969666,2.20368242528309,0.130486911234346,4,5.9,29.9
5.9,11.7749248101882,26.7617671086376,2.33536640475562,0.131683979472533,4,5.9,29.9
5.93333333333333,11.7745569027421,26.8418171171723,2.46781706025567,0.132450655500045,4,5.9,29.9
5.96666666666667,11.7741667870841,26.9262914227122,2.60079685245572,0.132979792200052,4,5.9,29.9
6,11.7737536361728,27.0152057075954,2.73421740065444,0.133420548198722,4,5.9,29.9
6.03333333333333,11.7733168470884,27.1085764499589,2.86821968642841,0.134002285773964,4,5.9,29.9
6.06666666666667,11.7728560331846,27.2064266539271,3.00301511214044,0.134795425712035,4,5.9,29.9
6.1,11.7723710068162,27.3087854046343,3.1387473036992,0.135732191558755,4,5.9,29.9
6.13333333333333,11.7718617489002,27.4156848039399,3.27544941296221,0.136702109263014,4,5.9,29.9
6.16666666666667,11.7713283671541,27.5271558432932,3.41301988713121,0.137570474168999,4,5.9,29.9
6.2,11.7707710484604,27.6432241891526,3.55124896848156,0.138229081350346,4,5.9,29.9
6.23333333333333,11.7701900110884,27.7639067039781,3.68980457827113,0.138555609789572,4,5.9,29.9
6.26666666666667,11.7695854714644,27.8892072202218,3.82826657918757,0.138462000916441,4,5.9,29.9
6.3,11.7689576096899,28.0191161581822,3.96625333477409,0.137986755586519,4,5.9,29.9
6.33333333333333,11.7683065465792,28.1536116819058,4.10340799527726,0.13715466050317,4,5.9,29.9
6.36666666666667,11.7676328579676,28.2926603200054,4.23938641976059,0.135978424483329,4,5.9,29.9
6.4,11.7669389050767,28.4362169237333,4.37382426063124,0.134437840870656,4,5.9,29.9
6.43333333333333,11.7662268566315,28.5842226988904,4.50624097949928,0.132416718868041,4,5.9,29.9
6.46666666666667,11.7654981362248,28.7366006931474,4.63607729363899,0.129836314139711,4,5.9,29.9
6.5,11.7647535223182,28.8932578061966,4.76293934824342,0.12686205460443,4,5.9,29.9
